% time spent exploring,episodes,mean 100 episode reward,steps
99,5,300.0,720
99,10,377.8,1459
99,15,392.9,2122
99,20,510.5,2894
99,25,475.0,3601
99,30,469.0,4206
99,35,517.6,5017
99,40,497.4,5518
99,45,529.5,6353
99,50,520.4,7151
98,55,520.4,8015
98,60,510.2,8530
98,65,503.1,9357
98,70,511.6,10059
98,75,513.5,10843
98,80,498.7,11468
98,85,508.3,12222
98,90,513.5,12996
98,95,526.6,13951
98,100,512.1,14807
97,105,518.0,15447
97,110,520.0,16109
97,115,520.0,16676
97,120,496.0,17368
97,125,505.0,17891
97,130,514.0,18582
97,135,510.0,19238
97,140,513.0,19967
97,145,508.0,20756
97,150,507.0,21554
97,155,511.0,22361
97,160,521.0,22917
96,165,536.0,23561
96,170,524.0,23980
96,175,525.0,24874
96,180,545.0,25505
96,185,542.0,26370
96,190,547.0,27121
96,195,539.0,27760
96,200,568.0,28565
96,205,558.0,29002
96,210,569.0,29867
96,215,579.0,30457
95,220,572.0,30802
95,225,585.0,31718
95,230,580.0,32517
95,235,567.0,32971
95,240,585.0,33705
95,245,576.0,34322
95,250,575.0,35031
95,255,572.0,35676
95,260,574.0,36287
95,265,567.0,36865
95,270,582.0,37798
94,275,575.0,38444
94,280,575.0,39108
94,285,567.0,39649
94,290,573.0,40384
94,295,559.0,41064
94,300,555.0,41835
94,305,571.0,42589
94,310,576.0,43279
94,315,582.0,44033
94,320,601.0,44648
94,325,596.0,45365
93,330,590.0,45972
93,335,600.0,46713
93,340,585.0,47260
93,345,577.0,47821
93,350,581.0,48328
93,355,584.0,48809
93,360,584.0,49429
93,365,575.0,49960
93,370,565.0,50557
93,375,577.0,51209
93,380,583.0,51863
93,385,589.0,52533
93,390,572.0,53115
92,395,594.0,53984
92,400,584.0,54585
92,405,579.0,55104
92,410,559.0,55500
92,415,563.0,56256
92,420,554.0,56783
92,425,546.0,57325
92,430,549.0,58037
92,435,564.0,58848
92,440,572.0,59559
92,445,568.0,59951
92,450,567.0,60377
91,455,580.0,61304
91,460,577.0,61922
91,465,593.0,62628
91,470,584.0,63125
91,475,579.0,63630
91,480,567.0,64331
91,485,560.0,64905
91,490,572.0,65464
91,495,562.0,65864
91,500,561.0,66360
91,505,568.0,67000
91,510,584.0,67741
91,515,577.0,68279
91,520,573.0,68699
90,525,595.0,69401
90,530,605.0,69900
90,535,574.0,70230
90,540,583.0,70868
90,545,605.0,71404
90,550,607.0,71808
90,555,599.0,72403
90,560,595.0,72927
90,565,581.0,73438
90,570,596.0,73905
90,575,606.0,74347
90,580,612.0,74983
90,585,631.0,75547
90,590,626.0,76108
90,595,625.0,76530
89,600,645.0,77249
89,605,656.0,77940
89,610,655.0,78558
89,615,667.0,79107
89,620,682.0,79567
89,625,667.0,80155
89,630,683.0,80743
89,635,705.0,81348
89,640,692.0,81897
89,645,693.0,82546
89,650,706.0,83172
89,655,698.0,83659
89,660,698.0,84179
88,665,716.0,84806
88,670,719.0,85318
88,675,714.0,85842
88,680,706.0,86300
88,685,695.0,86794
88,690,696.0,87405
88,695,708.0,88074
88,700,716.0,88904
88,705,696.0,89329
88,710,686.0,89884
88,715,666.0,90479
88,720,658.0,90791
88,725,661.0,91583
87,730,631.0,91953
87,735,620.0,92572
87,740,617.0,93050
87,745,620.0,93790
87,750,619.0,94290
87,755,628.0,94913
87,760,628.0,95402
87,765,623.0,95884
87,770,620.0,96363
87,775,612.0,96773
87,780,621.0,97230
87,785,618.0,97766
87,790,625.0,98444
87,795,621.0,98958
86,800,608.0,99649
86,805,606.0,99993
86,810,601.0,100425
86,815,609.0,100937
86,820,608.0,101374
86,825,613.0,101962
86,830,628.0,102661
86,835,620.0,102975
86,840,629.0,103510
86,845,634.0,104109
86,850,638.0,104871
86,855,643.0,105545
86,860,644.0,105997
86,865,624.0,106441
86,870,629.0,106912
85,875,636.0,107459
85,880,640.0,107989
85,885,663.0,108868
85,890,656.0,109427
85,895,656.0,110047
85,900,642.0,110502
85,905,646.0,110860
85,910,643.0,111200
85,915,650.0,111898
85,920,659.0,112483
85,925,644.0,112939
85,930,644.0,113516
85,935,668.0,114142
85,940,659.0,114479
84,945,658.0,115033
84,950,644.0,115462
84,955,633.0,115930
84,960,645.0,116483
84,965,666.0,117207
84,970,679.0,117938
84,975,668.0,118322
84,980,665.0,118852
84,985,654.0,119361
84,990,648.0,119778
84,995,647.0,120191
84,1000,657.0,120696
84,1005,658.0,121141
84,1010,682.0,121748
84,1015,667.0,122355
83,1020,666.0,122879
83,1025,678.0,123551
83,1030,676.0,124199
83,1035,653.0,124535
83,1040,663.0,125083
83,1045,654.0,125471
83,1050,675.0,126014
83,1055,671.0,126476
83,1060,660.0,126758
83,1065,661.0,127421
83,1070,649.0,128007
83,1075,659.0,128613
83,1080,660.0,129179
83,1085,666.0,130011
82,1090,686.0,130673
82,1095,689.0,131001
82,1100,688.0,131858
82,1105,700.0,132564
82,1110,692.0,133155
82,1115,704.0,133711
82,1120,713.0,134415
82,1125,713.0,135151
82,1130,724.0,135929
82,1135,724.0,136331
82,1140,739.0,136943
82,1145,735.0,137349
81,1150,734.0,137982
81,1155,752.0,138838
81,1160,761.0,139268
81,1165,764.0,139800
81,1170,775.0,140326
81,1175,786.0,140827
81,1180,783.0,141378
81,1185,782.0,141952
81,1190,778.0,142598
81,1195,774.0,143301
81,1200,768.0,143698
81,1205,764.0,144296
81,1210,754.0,144685
81,1215,754.0,145210
80,1220,772.0,146154
80,1225,759.0,146535
80,1230,763.0,147185
80,1235,773.0,147616
80,1240,765.0,148323
80,1245,765.0,148792
80,1250,770.0,149524
80,1255,765.0,149848
80,1260,788.0,150654
80,1265,782.0,151139
80,1270,783.0,151873
80,1275,777.0,152436
79,1280,777.0,153143
79,1285,756.0,153520
79,1290,738.0,153826
79,1295,752.0,154660
79,1300,762.0,155328
79,1305,766.0,155955
79,1310,774.0,156438
79,1315,776.0,156966
79,1320,765.0,157721
79,1325,787.0,158328
79,1330,786.0,158933
79,1335,781.0,159346
79,1340,793.0,160001
79,1345,803.0,160456
78,1350,801.0,161028
78,1355,807.0,161717
78,1360,786.0,162248
78,1365,780.0,162630
78,1370,754.0,162870
78,1375,768.0,163517
78,1380,768.0,164049
78,1385,786.0,164575
78,1390,792.0,164863
78,1395,775.0,165230
78,1400,769.0,165626
78,1405,779.0,166343
78,1410,787.0,166877
78,1415,774.0,167291
78,1420,766.0,167841
77,1425,763.0,168412
77,1430,754.0,168748
77,1435,768.0,169298
77,1440,761.0,169863
77,1445,754.0,170395
77,1450,734.0,170715
77,1455,719.0,171180
77,1460,710.0,171488
77,1465,744.0,172172
77,1470,762.0,172772
77,1475,765.0,173584
77,1480,765.0,174062
77,1485,760.0,174600
77,1490,790.0,175338
77,1495,790.0,175727
76,1500,797.0,176273
76,1505,780.0,176772
76,1510,772.0,177124
76,1515,805.0,177892
76,1520,795.0,178248
76,1525,801.0,178931
76,1530,809.0,179499
76,1535,807.0,180019
76,1540,782.0,180333
76,1545,780.0,180772
76,1550,776.0,181221
76,1555,790.0,181765
76,1560,794.0,182256
76,1565,769.0,182935
76,1570,778.0,183593
75,1575,760.0,183975
75,1580,775.0,184497
75,1585,784.0,184988
75,1590,779.0,185637
75,1595,775.0,185905
75,1600,774.0,186348
75,1605,789.0,187028
75,1610,789.0,187435
75,1615,757.0,187817
75,1620,767.0,188284
75,1625,784.0,189035
75,1630,784.0,189474
75,1635,791.0,190171
75,1640,799.0,190461
75,1645,802.0,190916
75,1650,807.0,191268
74,1655,800.0,191799
74,1660,807.0,192310
74,1665,822.0,192886
74,1670,808.0,193403
74,1675,806.0,193911
74,1680,806.0,194579
74,1685,789.0,194946
74,1690,767.0,195208
74,1695,775.0,195712
74,1700,784.0,196229
74,1705,774.0,196735
74,1710,782.0,197098
74,1715,795.0,197657
74,1720,792.0,198030
74,1725,744.0,198336
73,1730,751.0,199011
73,1735,738.0,199422
73,1740,751.0,199965
73,1745,741.0,200328
73,1750,752.0,200854
73,1755,753.0,201212
73,1760,765.0,201870
73,1765,748.0,202276
73,1770,769.0,202951
73,1775,784.0,203618
73,1780,762.0,204036
73,1785,771.0,204559
73,1790,771.0,205138
73,1795,777.0,205547
73,1800,757.0,205904
73,1805,759.0,206351
72,1810,753.0,206747
72,1815,757.0,207172
72,1820,754.0,207450
72,1825,777.0,207958
72,1830,757.0,208288
72,1835,778.0,209039
72,1840,779.0,209541
72,1845,788.0,209974
72,1850,800.0,210598
72,1855,812.0,211116
72,1860,800.0,211537
72,1865,811.0,211970
72,1870,789.0,212378
72,1875,789.0,212836
72,1880,797.0,213366
72,1885,784.0,213580
72,1890,793.0,214187
71,1895,767.0,214353
71,1900,780.0,214831
71,1905,779.0,215330
71,1910,781.0,215630
71,1915,775.0,216153
71,1920,801.0,216887
71,1925,810.0,217430
71,1930,830.0,218006
71,1935,821.0,218576
71,1940,828.0,219254
71,1945,819.0,219594
71,1950,809.0,220182
71,1955,810.0,220767
71,1960,813.0,221346
71,1965,805.0,221815
70,1970,822.0,222439
70,1975,832.0,223269
70,1980,826.0,223573
70,1985,853.0,224383
70,1990,854.0,224923
70,1995,875.0,225247
70,2000,880.0,225770
70,2005,887.0,226369
70,2010,894.0,227026
70,2015,896.0,227554
70,2020,889.0,228345
70,2025,891.0,229158
69,2030,885.0,229848
69,2035,891.0,230562
69,2040,888.0,231163
69,2045,917.0,231981
69,2050,912.0,232425
69,2055,894.0,232882
69,2060,903.0,233449
69,2065,908.0,233997
69,2070,902.0,234523
69,2075,879.0,235093
69,2080,884.0,235582
69,2085,876.0,236012
69,2090,859.0,236493
69,2095,857.0,236920
68,2100,852.0,237425
68,2105,845.0,237988
68,2110,849.0,238465
68,2115,838.0,238717
68,2120,822.0,239215
68,2125,804.0,239571
68,2130,806.0,240137
68,2135,790.0,240593
68,2140,788.0,241127
68,2145,772.0,241602
68,2150,781.0,242414
68,2155,799.0,243084
68,2160,793.0,243786
68,2165,806.0,244464
67,2170,799.0,244977
67,2175,804.0,245430
67,2180,814.0,246054
67,2185,824.0,246635
67,2190,841.0,247184
67,2195,858.0,247863
67,2200,848.0,248341
67,2205,855.0,248812
67,2210,847.0,249310
67,2215,868.0,249858
67,2220,884.0,250570
67,2225,888.0,251145
67,2230,884.0,251584
67,2235,895.0,252243
66,2240,899.0,252928
66,2245,910.0,253598
66,2250,925.0,254305
66,2255,912.0,254704
66,2260,916.0,255442
66,2265,898.0,256022
66,2270,912.0,256630
66,2275,915.0,257074
66,2280,921.0,257686
66,2285,898.0,257918
66,2290,894.0,258513
66,2295,893.0,259028
66,2300,897.0,259286
66,2305,892.0,259974
65,2310,907.0,260483
65,2315,903.0,260933
65,2320,897.0,261641
65,2325,910.0,262386
65,2330,918.0,263036
65,2335,911.0,263421
65,2340,910.0,264030
65,2345,909.0,264552
65,2350,879.0,264935
65,2355,901.0,265535
65,2360,892.0,265917
65,2365,906.0,266376
65,2370,896.0,266899
65,2375,898.0,267323
65,2380,896.0,267791
64,2385,920.0,268405
64,2390,920.0,269208
64,2395,921.0,269844
64,2400,926.0,270255
64,2405,933.0,270699
64,2410,928.0,271368
64,2415,921.0,271906
64,2420,902.0,272263
64,2425,892.0,272537
64,2430,883.0,273033
64,2435,886.0,273301
64,2440,863.0,273543
64,2445,847.0,273976
64,2450,870.0,274524
64,2455,867.0,275297
63,2460,882.0,275986
63,2465,881.0,276578
63,2470,883.0,277217
63,2475,893.0,278100
63,2480,907.0,279080
63,2485,909.0,279762
63,2490,910.0,280225
63,2495,902.0,280670
63,2500,903.0,281154
63,2505,887.0,281516
63,2510,899.0,282126
63,2515,912.0,282832
62,2520,934.0,283489
62,2525,935.0,283880
62,2530,932.0,284307
62,2535,935.0,284686
62,2540,944.0,285196
62,2545,956.0,285672
62,2550,946.0,286347
62,2555,932.0,286800
62,2560,937.0,287651
62,2565,957.0,288547
62,2570,971.0,289183
62,2575,954.0,289579
62,2580,956.0,290455
61,2585,936.0,290836
61,2590,937.0,291348
61,2595,951.0,291882
61,2600,976.0,292639
61,2605,1006.0,293308
61,2610,995.0,293927
61,2615,979.0,294407
61,2620,967.0,294752
61,2625,988.0,295421
61,2630,998.0,295948
61,2635,987.0,296288
61,2640,997.0,296698
61,2645,986.0,297015
61,2650,995.0,297596
61,2655,986.0,298011
60,2660,985.0,298912
60,2665,959.0,299508
60,2670,939.0,300030
60,2675,949.0,300440
60,2680,930.0,300816
60,2685,939.0,301094
60,2690,950.0,301653
60,2695,939.0,302050
60,2700,919.0,302527
60,2705,922.0,303117
60,2710,902.0,303363
60,2715,911.0,303611
60,2720,912.0,303990
60,2725,883.0,304338
60,2730,881.0,304730
60,2735,877.0,305053
60,2740,896.0,305753
59,2745,921.0,306331
59,2750,914.0,306796
59,2755,930.0,307432
59,2760,913.0,307779
59,2765,924.0,308592
59,2770,922.0,309033
59,2775,912.0,309425
59,2780,920.0,309884
59,2785,922.0,310248
59,2790,913.0,310676
59,2795,904.0,310898
59,2800,910.0,311475
59,2805,900.0,312146
59,2810,920.0,312653
59,2815,917.0,313160
59,2820,921.0,313482
58,2825,952.0,314312
58,2830,959.0,314773
58,2835,979.0,315202
58,2840,967.0,315614
58,2845,959.0,316110
58,2850,941.0,316420
58,2855,963.0,317289
58,2860,963.0,317754
58,2865,953.0,318235
58,2870,945.0,318550
58,2875,949.0,319013
58,2880,933.0,319453
58,2885,929.0,320025
58,2890,929.0,320543
58,2895,940.0,320909
58,2900,922.0,321255
57,2905,916.0,321720
57,2910,914.0,322354
57,2915,927.0,323093
57,2920,935.0,323818
57,2925,917.0,324346
57,2930,904.0,324921
57,2935,913.0,325509
57,2940,914.0,326052
57,2945,924.0,326619
57,2950,938.0,327131
57,2955,912.0,327499
57,2960,910.0,328009
57,2965,914.0,328561
57,2970,928.0,329053
56,2975,916.0,329217
56,2980,933.0,329828
56,2985,937.0,330343
56,2990,933.0,330553
56,2995,962.0,331334
56,3000,980.0,331714
56,3005,987.0,332200
56,3010,1005.0,332884
56,3015,1000.0,333766
56,3020,1010.0,334533
56,3025,1013.0,334976
56,3030,1044.0,335890
56,3035,1045.0,336462
55,3040,1043.0,336851
55,3045,1032.0,337598
55,3050,1046.0,338166
55,3055,1058.0,338800
55,3060,1078.0,339606
55,3065,1087.0,340247
55,3070,1098.0,340789
55,3075,1102.0,341110
55,3080,1129.0,342042
55,3085,1114.0,342266
55,3090,1125.0,342723
55,3095,1108.0,343510
55,3100,1099.0,343911
54,3105,1099.0,344591
54,3110,1096.0,345318
54,3115,1087.0,345769
54,3120,1091.0,346598
54,3125,1089.0,347149
54,3130,1075.0,347818
54,3135,1055.0,348084
54,3140,1069.0,348850
54,3145,1074.0,349436
54,3150,1077.0,350018
54,3155,1111.0,351013
54,3160,1105.0,351549
53,3165,1118.0,352544
53,3170,1143.0,353319
53,3175,1168.0,353816
53,3180,1166.0,354811
53,3185,1183.0,355206
53,3190,1196.0,356024
53,3195,1207.0,356781
53,3200,1219.0,357399
53,3205,1240.0,358229
53,3210,1231.0,358715
53,3215,1254.0,359323
52,3220,1250.0,359885
52,3225,1282.0,360843
52,3230,1305.0,361729
52,3235,1334.0,362444
52,3240,1357.0,363439
52,3245,1372.0,364124
52,3250,1384.0,364950
52,3255,1362.0,365764
52,3260,1380.0,366505
52,3265,1383.0,367256
51,3270,1390.0,368230
51,3275,1358.0,368488
51,3280,1332.0,369125
51,3285,1355.0,369854
51,3290,1361.0,370581
51,3295,1345.0,371221
51,3300,1366.0,372069
51,3305,1373.0,372933
51,3310,1383.0,373581
51,3315,1397.0,374499
50,3320,1411.0,375315
50,3325,1395.0,376018
50,3330,1376.0,376864
50,3335,1372.0,377609
50,3340,1358.0,378276
50,3345,1358.0,379039
50,3350,1360.0,380034
50,3355,1361.0,380872
50,3360,1342.0,381521
50,3365,1323.0,382034
50,3370,1284.0,382522
49,3375,1321.0,383362
49,3380,1310.0,383856
49,3385,1291.0,384530
49,3390,1278.0,385197
49,3395,1275.0,385763
49,3400,1262.0,386508
49,3405,1228.0,387201
49,3410,1201.0,387528
49,3415,1173.0,388372
49,3420,1141.0,389011
49,3425,1145.0,389832
48,3430,1119.0,390340
48,3435,1108.0,390928
48,3440,1102.0,391733
48,3445,1094.0,392450
48,3450,1064.0,393056
48,3455,1055.0,393785
48,3460,1070.0,394524
48,3465,1078.0,395374
48,3470,1098.0,396224
48,3475,1088.0,396973
48,3480,1088.0,397287
48,3485,1089.0,397782
47,3490,1084.0,398294
47,3495,1084.0,398900
47,3500,1075.0,399545
47,3505,1077.0,400016
47,3510,1100.0,400843
47,3515,1086.0,401200
47,3520,1081.0,401493
47,3525,1072.0,402133
47,3530,1077.0,402731
47,3535,1083.0,403411
47,3540,1050.0,403917
47,3545,1042.0,404439
47,3550,1061.0,404987
46,3555,1066.0,405687
46,3560,1053.0,406189
46,3565,1034.0,406457
46,3570,1008.0,406641
46,3575,1000.0,407137
46,3580,1012.0,407725
46,3585,1015.0,408441
46,3590,1016.0,408910
46,3595,1015.0,409471
46,3600,1010.0,409864
46,3605,1013.0,410648
46,3610,1003.0,411038
46,3615,1015.0,411695
46,3620,1021.0,412378
46,3625,1007.0,413024
45,3630,1001.0,413490
45,3635,982.0,413943
45,3640,994.0,414419
45,3645,974.0,414706
45,3650,963.0,415237
45,3655,959.0,415809
45,3660,951.0,416153
45,3665,946.0,416653
45,3670,955.0,417364
45,3675,958.0,417878
45,3680,963.0,418343
45,3685,958.0,419055
45,3690,953.0,419663
45,3695,953.0,420059
45,3700,955.0,420492
44,3705,949.0,421023
44,3710,954.0,421554
44,3715,965.0,422288
44,3720,981.0,422700
44,3725,985.0,423170
44,3730,1001.0,423740
44,3735,1015.0,424292
44,3740,1014.0,424804
44,3745,1028.0,425272
44,3750,1027.0,425950
44,3755,1011.0,426514
44,3760,1018.0,427126
44,3765,1022.0,427539
44,3770,1043.0,428287
43,3775,1062.0,429203
43,3780,1044.0,429622
43,3785,1057.0,430233
43,3790,1073.0,431099
43,3795,1074.0,431542
43,3800,1091.0,432266
43,3805,1116.0,433110
43,3810,1130.0,433879
43,3815,1127.0,434544
43,3820,1133.0,435238
43,3825,1149.0,435801
42,3830,1151.0,436484
42,3835,1148.0,437024
42,3840,1166.0,437572
42,3845,1188.0,438323
42,3850,1223.0,439176
42,3855,1263.0,439971
42,3860,1278.0,440652
42,3865,1289.0,441189
42,3870,1262.0,441495
42,3875,1251.0,442156
42,3880,1291.0,443020
42,3885,1273.0,443388
41,3890,1277.0,444149
41,3895,1287.0,444880
41,3900,1264.0,445334
41,3905,1232.0,445747
41,3910,1235.0,446621
41,3915,1239.0,447338
41,3920,1238.0,447863
41,3925,1250.0,448581
41,3930,1245.0,449236
41,3935,1251.0,449684
41,3940,1244.0,450093
41,3945,1228.0,450653
41,3950,1210.0,451205
40,3955,1169.0,451604
40,3960,1191.0,452599
40,3965,1198.0,453181
40,3970,1194.0,453502
40,3975,1195.0,454183
40,3980,1174.0,454997
40,3985,1182.0,455432
40,3990,1182.0,456039
40,3995,1171.0,456581
40,4000,1199.0,457249
40,4005,1214.0,457777
40,4010,1206.0,458263
40,4015,1219.0,459047
39,4020,1244.0,459973
39,4025,1218.0,460487
39,4030,1214.0,460882
39,4035,1230.0,461728
39,4040,1219.0,462057
39,4045,1234.0,462645
39,4050,1235.0,463450
39,4055,1269.0,464283
39,4060,1239.0,464865
39,4065,1248.0,465604
39,4070,1260.0,465935
39,4075,1279.0,466781
38,4080,1290.0,467655
38,4085,1287.0,468158
38,4090,1292.0,468813
38,4095,1289.0,469250
38,4100,1283.0,470124
38,4105,1293.0,470722
38,4110,1284.0,471189
38,4115,1266.0,471844
38,4120,1238.0,472548
38,4125,1254.0,473203
38,4130,1276.0,474059
37,4135,1290.0,474911
37,4140,1306.0,475586
37,4145,1315.0,476581
37,4150,1283.0,476916
37,4155,1260.0,477454
37,4160,1268.0,478270
37,4165,1263.0,478826
37,4170,1267.0,479491
37,4175,1245.0,480158
37,4180,1234.0,480792
37,4185,1217.0,481099
37,4190,1221.0,482094
36,4195,1233.0,482598
36,4200,1229.0,483247
36,4205,1222.0,483821
36,4210,1228.0,484451
36,4215,1254.0,485446
36,4220,1254.0,486121
36,4225,1253.0,486770
36,4230,1261.0,487513
36,4235,1255.0,488248
36,4240,1273.0,488987
36,4245,1265.0,489519
35,4250,1290.0,490037
35,4255,1284.0,490569
35,4260,1295.0,491435
35,4265,1286.0,491943
35,4270,1291.0,492769
35,4275,1302.0,493488
35,4280,1295.0,494022
35,4285,1324.0,494826
35,4290,1320.0,495692
35,4295,1315.0,496089
35,4300,1317.0,496582
35,4305,1331.0,497413
34,4310,1325.0,497840
34,4315,1317.0,498588
34,4320,1331.0,499281
34,4325,1326.0,499719
34,4330,1311.0,500237
34,4335,1289.0,501015
34,4340,1273.0,501699
34,4345,1276.0,502323
34,4350,1283.0,503090
34,4355,1303.0,503663
34,4360,1268.0,503881
34,4365,1264.0,504512
34,4370,1238.0,504972
33,4375,1234.0,505452
33,4380,1247.0,506080
33,4385,1261.0,506766
33,4390,1261.0,507322
33,4395,1257.0,507830
33,4400,1268.0,508489
33,4405,1261.0,509091
33,4410,1299.0,509951
33,4415,1315.0,510775
33,4420,1288.0,511108
33,4425,1307.0,511740
33,4430,1314.0,512401
32,4435,1314.0,512836
32,4440,1316.0,513475
32,4445,1289.0,513982
32,4450,1288.0,514657
32,4455,1299.0,515473
32,4460,1315.0,515943
32,4465,1331.0,516354
32,4470,1350.0,516846
32,4475,1375.0,517474
32,4480,1382.0,518117
32,4485,1353.0,518574
32,4490,1338.0,519182
32,4495,1360.0,519700
32,4500,1343.0,520357
31,4505,1345.0,520927
31,4510,1328.0,521618
31,4515,1340.0,522486
31,4520,1378.0,523183
31,4525,1399.0,524033
31,4530,1430.0,524863
31,4535,1427.0,525335
31,4540,1434.0,525994
31,4545,1496.0,526870
31,4550,1499.0,527388
30,4555,1524.0,528234
30,4560,1535.0,528941
30,4565,1535.0,529408
30,4570,1570.0,530220
30,4575,1542.0,530529
30,4580,1561.0,531254
30,4585,1586.0,531738
30,4590,1617.0,532457
30,4595,1621.0,533108
30,4600,1608.0,533475
30,4605,1589.0,533786
30,4610,1609.0,534620
30,4615,1562.0,534983
29,4620,1565.0,535772
29,4625,1567.0,536618
29,4630,1514.0,536934
29,4635,1490.0,537152
29,4640,1518.0,537994
29,4645,1457.0,538309
29,4650,1480.0,539135
29,4655,1435.0,539581
29,4660,1431.0,540209
29,4665,1432.0,540831
29,4670,1406.0,541323
29,4675,1428.0,541984
29,4680,1416.0,542619
29,4685,1411.0,543099
28,4690,1406.0,543782
28,4695,1422.0,544600
28,4700,1431.0,545054
28,4705,1460.0,545689
28,4710,1443.0,546374
28,4715,1456.0,547015
28,4720,1444.0,547650
28,4725,1399.0,548122
28,4730,1430.0,548769
28,4735,1443.0,549070
28,4740,1434.0,549914
28,4745,1488.0,550794
27,4750,1471.0,551420
27,4755,1486.0,552073
27,4760,1504.0,552885
27,4765,1507.0,553534
27,4770,1526.0,554223
27,4775,1526.0,554862
27,4780,1541.0,555700
27,4785,1543.0,556329
27,4790,1513.0,556628
27,4795,1507.0,557440
27,4800,1537.0,558097
27,4805,1491.0,558217
26,4810,1524.0,559212
26,4815,1536.0,559736
26,4820,1529.0,560238
26,4825,1573.0,561233
26,4830,1557.0,561687
26,4835,1619.0,562529
26,4840,1608.0,563158
26,4845,1587.0,563811
26,4850,1600.0,564623
26,4855,1602.0,565179
26,4860,1571.0,565492
26,4865,1576.0,566127
25,4870,1603.0,566953
25,4875,1588.0,567409
25,4880,1551.0,567853
25,4885,1557.0,568327
25,4890,1599.0,569153
25,4895,1568.0,569609
25,4900,1581.0,570419
25,4905,1638.0,570796
25,4910,1581.0,571093
25,4915,1568.0,571541
25,4920,1584.0,572190
25,4925,1560.0,572841
25,4930,1561.0,573367
24,4935,1547.0,574016
24,4940,1532.0,574476
24,4945,1519.0,574928
24,4950,1552.0,575923
24,4955,1582.0,576751
24,4960,1596.0,577209
24,4965,1628.0,578039
24,4970,1588.0,578503
24,4975,1588.0,578989
24,4980,1616.0,579509
24,4985,1648.0,580348
24,4990,1640.0,580999
23,4995,1688.0,581824
23,5000,1672.0,582453
23,5005,1666.0,582955
23,5010,1685.0,583451
23,5015,1702.0,583983
23,5020,1701.0,584618
23,5025,1702.0,585102
23,5030,1772.0,586097
23,5035,1785.0,586909
23,5040,1831.0,587725
23,5045,1865.0,588537
23,5050,1801.0,588870
23,5055,1753.0,589164
22,5060,1779.0,589823
22,5065,1752.0,590341
22,5070,1795.0,591104
22,5075,1789.0,591399
22,5080,1765.0,591730
22,5085,1761.0,592407
22,5090,1780.0,593219
22,5095,1778.0,594031
22,5100,1768.0,594441
22,5105,1778.0,594969
22,5110,1790.0,595442
22,5115,1798.0,596091
22,5120,1775.0,596537
21,5125,1789.0,597347
21,5130,1740.0,597861
21,5135,1696.0,598169
21,5140,1660.0,598655
21,5145,1681.0,599650
21,5150,1710.0,600335
21,5155,1729.0,600964
21,5160,1715.0,601593
21,5165,1713.0,602228
21,5170,1704.0,602911
21,5175,1728.0,603554
21,5180,1753.0,604044
21,5185,1727.0,604542
20,5190,1719.0,605235
20,5195,1707.0,605775
20,5200,1730.0,606438
20,5205,1729.0,607106
20,5210,1743.0,607918
20,5215,1728.0,608388
20,5220,1760.0,609037
20,5225,1775.0,609863
20,5230,1794.0,610538
20,5235,1834.0,611225
20,5240,1840.0,611743
19,5245,1829.0,612557
19,5250,1782.0,612711
19,5255,1782.0,613221
19,5260,1773.0,613705
19,5265,1793.0,614249
19,5270,1771.0,614723
19,5275,1796.0,615541
19,5280,1810.0,616218
19,5285,1825.0,616718
19,5290,1799.0,617174
19,5295,1800.0,617682
19,5300,1794.0,618319
19,5305,1795.0,618843
19,5310,1801.0,619657
18,5315,1840.0,620507
18,5320,1859.0,621333
18,5325,1827.0,621819
18,5330,1809.0,622329
18,5335,1763.0,622688
18,5340,1776.0,623347
18,5345,1770.0,624046
18,5350,1770.0,624311
18,5355,1800.0,624937
18,5360,1842.0,625648
18,5365,1821.0,626160
18,5370,1850.0,626970
18,5375,1815.0,627430
17,5380,1838.0,628334
17,5385,1830.0,628979
17,5390,1870.0,629778
17,5395,1907.0,630664
17,5400,1942.0,631522
17,5405,1938.0,632028
17,5410,1945.0,632864
17,5415,1935.0,633676
17,5420,1923.0,634335
17,5425,1950.0,635026
16,5430,1968.0,635586
16,5435,2006.0,636227
16,5440,1982.0,636683
16,5445,1947.0,637223
16,5450,1992.0,637850
16,5455,1975.0,638507
16,5460,1941.0,639011
16,5465,1967.0,639849
16,5470,1919.0,640166
16,5475,1940.0,640686
16,5480,1946.0,641681
16,5485,1956.0,642338
15,5490,1974.0,643296
15,5495,1945.0,643973
15,5500,1916.0,644620
15,5505,1959.0,645615
15,5510,1958.0,646427
15,5515,1951.0,647064
15,5520,1964.0,647753
15,5525,1931.0,648086
15,5530,1940.0,648898
15,5535,1945.0,649410
15,5540,2007.0,650405
14,5545,2072.0,651400
14,5550,2050.0,651844
14,5555,2085.0,652647
14,5560,2126.0,653473
14,5565,2126.0,654289
14,5570,2193.0,655151
14,5575,2186.0,655685
14,5580,2161.0,656370
14,5585,2130.0,656673
14,5590,2123.0,657483
14,5595,2116.0,658112
13,5600,2144.0,658867
13,5605,2112.0,659413
13,5610,2099.0,660054
13,5615,2147.0,661049
13,5620,2168.0,662044
13,5625,2202.0,662705
13,5630,2173.0,663398
13,5635,2153.0,663862
13,5640,2153.0,664700
13,5645,2148.0,665526
12,5650,2225.0,666479
12,5655,2223.0,667297
12,5660,2194.0,667811
12,5665,2221.0,668652
12,5670,2217.0,669494
12,5675,2272.0,670489
12,5680,2250.0,670983
12,5685,2306.0,671793
12,5690,2299.0,672576
12,5695,2335.0,673394
11,5700,2349.0,674389
11,5705,2398.0,675347
11,5710,2430.0,676191
11,5715,2435.0,677186
11,5720,2446.0,678146
11,5725,2482.0,679141
11,5730,2545.0,680136
11,5735,2572.0,680809
10,5740,2543.0,681444
10,5745,2539.0,682262
10,5750,2506.0,682917
10,5755,2512.0,683735
10,5760,2530.0,684553
10,5765,2474.0,685009
10,5770,2501.0,685985
10,5775,2456.0,686622
10,5780,2515.0,687617
10,5785,2542.0,688517
9,5790,2523.0,689146
9,5795,2521.0,689958
9,5800,2533.0,690953
9,5805,2489.0,691588
9,5810,2442.0,692013
9,5815,2392.0,692547
9,5820,2397.0,693491
9,5825,2384.0,694304
9,5830,2358.0,694991
9,5835,2391.0,695841
8,5840,2431.0,696836
8,5845,2423.0,697494
8,5850,2463.0,698448
8,5855,2485.0,699443
8,5860,2521.0,700438
8,5865,2603.0,701433
8,5870,2603.0,702428
8,5875,2621.0,703163
7,5880,2639.0,704129
7,5885,2628.0,704947
7,5890,2687.0,705942
7,5895,2722.0,706819
7,5900,2693.0,707468
7,5905,2706.0,707973
7,5910,2759.0,708734
7,5915,2804.0,709598
7,5920,2816.0,710593
7,5925,2799.0,711238
6,5930,2829.0,712214
6,5935,2831.0,713023
6,5940,2813.0,713686
6,5945,2863.0,714606
6,5950,2848.0,715416
6,5955,2846.0,716411
6,5960,2850.0,717273
6,5965,2848.0,718139
6,5970,2836.0,718949
5,5975,2888.0,719944
5,5980,2865.0,720756
5,5985,2886.0,721672
5,5990,2896.0,722666
5,5995,2903.0,723658
5,6000,2948.0,724653
5,6005,2996.0,725643
5,6010,3015.0,726638
4,6015,3037.0,727633
4,6020,2998.0,728376
4,6025,3052.0,729371
4,6030,3058.0,730231
4,6035,3084.0,731223
4,6040,3127.0,732215
4,6045,3099.0,733033
4,6050,3109.0,733848
3,6055,3120.0,734843
3,6060,3108.0,735655
3,6065,3119.0,736650
3,6070,3150.0,737645
3,6075,3151.0,738640
3,6080,3185.0,739635
3,6085,3197.0,740630
3,6090,3188.0,741574
2,6095,3189.0,742569
2,6100,3190.0,743523
2,6105,3197.0,744518
2,6110,3209.0,745513
2,6115,3185.0,746282
2,6120,3218.0,747201
2,6125,3225.0,748196
2,6130,3237.0,749191
2,6135,3241.0,750186
2,6140,3243.0,751106
2,6145,3274.0,752098
2,6150,3298.0,753093
2,6155,3304.0,754039
2,6160,3336.0,755034
2,6165,3340.0,756029
2,6170,3341.0,756949
2,6175,3345.0,757944
2,6180,3343.0,758894
2,6185,3346.0,759889
2,6190,3346.0,760733
2,6195,3353.0,761728
2,6200,3345.0,762614
2,6205,3344.0,763609
2,6210,3348.0,764604
2,6215,3377.0,765599
2,6220,3391.0,766594
2,6225,3387.0,767589
2,6230,3391.0,768584
2,6235,3392.0,769579
2,6240,3389.0,770525
2,6245,3394.0,771520
2,6250,3400.0,772515
2,6255,3406.0,773510
2,6260,3389.0,774354
2,6265,3378.0,775216
2,6270,3377.0,776211
2,6275,3379.0,777206
2,6280,3382.0,778201
2,6285,3332.0,778837
2,6290,3345.0,779807
2,6295,3344.0,780729
2,6300,3358.0,781724
2,6305,3360.0,782719
2,6310,3361.0,783576
2,6315,3335.0,784394
2,6320,3308.0,785204
2,6325,3312.0,786174
2,6330,3314.0,787169
2,6335,3316.0,788164
2,6340,3297.0,788981
2,6345,3263.0,789799
2,6350,3264.0,790794
2,6355,3263.0,791694
2,6360,3283.0,792689
2,6365,3297.0,793659
2,6370,3298.0,794508
2,6375,3272.0,795326
2,6380,3273.0,796321
2,6385,3325.0,797316
2,6390,3327.0,798311
2,6395,3326.0,799306
2,6400,3327.0,800301
2,6405,3328.0,801296
2,6410,3329.0,802291
2,6415,3354.0,803285
2,6420,3385.0,804231
2,6425,3358.0,805049
2,6430,3359.0,806044
2,6435,3360.0,807039
2,6440,3383.0,807965
2,6445,3418.0,808960
2,6450,3418.0,809955
2,6455,3419.0,810925
2,6460,3419.0,811920
2,6465,3417.0,812915
2,6470,3369.0,813556
2,6475,3395.0,814551
2,6480,3396.0,815546
2,6485,3370.0,816317
2,6490,3368.0,817312
2,6495,3368.0,818307
2,6500,3366.0,819302
2,6505,3342.0,820023
2,6510,3342.0,820892
2,6515,3315.0,821710
2,6520,3314.0,822705
2,6525,3312.0,823515
2,6530,3314.0,824510
2,6535,3287.0,825279
2,6540,3290.0,826273
2,6545,3284.0,827268
2,6550,3282.0,828263
2,6555,3281.0,829161
2,6560,3249.0,829971
2,6565,3221.0,830789
2,6570,3242.0,831607
2,6575,3185.0,832244
2,6580,3181.0,833239
2,6585,3121.0,833689
2,6590,3034.0,834137
2,6595,3008.0,834955
2,6600,2955.0,835596
2,6605,2979.0,836542
2,6610,2975.0,837537
2,6615,3001.0,838532
2,6620,2974.0,839350
2,6625,2977.0,840168
2,6630,2977.0,840920
2,6635,3000.0,841890
2,6640,2973.0,842516
2,6645,2978.0,843147
2,6650,2979.0,843875
2,6655,2975.0,844579
2,6660,3006.0,845283
2,6665,3032.0,846278
2,6670,3035.0,846999
2,6675,3063.0,847817
2,6680,3066.0,848521
2,6685,3125.0,849339
2,6690,3215.0,850237
2,6695,3217.0,851055
2,6700,3267.0,852050
2,6705,3254.0,853045
2,6710,3258.0,854040
2,6715,3257.0,855035
2,6720,3280.0,856030
2,6725,3307.0,856962
2,6730,3304.0,857957
2,6735,3306.0,858952
2,6740,3330.0,859947
2,6745,3302.0,860765
2,6750,3283.0,861540
2,6755,3256.0,862350
2,6760,3231.0,863168
2,6765,3208.0,863986
2,6770,3236.0,864981
2,6775,3264.0,865976
2,6780,3235.0,866786
2,6785,3211.0,867427
2,6790,3210.0,868422
2,6795,3233.0,869417
2,6800,3237.0,870412
2,6805,3223.0,871232
2,6810,3224.0,872227
2,6815,3227.0,873222
2,6820,3230.0,874217
2,6825,3205.0,875037
2,6830,3207.0,876032
2,6835,3177.0,876842
2,6840,3178.0,877837
2,6845,3205.0,878832
2,6850,3225.0,879827
2,6855,3256.0,880822
2,6860,3205.0,881312
2,6865,3210.0,882162
2,6870,3205.0,883157
2,6875,3178.0,883975
2,6880,3208.0,884970
2,6885,3258.0,885965
2,6890,3235.0,886783
2,6895,3234.0,887778
2,6900,3235.0,888773
2,6905,3263.0,889768
2,6910,3261.0,890763
2,6915,3262.0,891758
2,6920,3235.0,892576
2,6925,3260.0,893571
2,6930,3234.0,894389
2,6935,3264.0,895384
2,6940,3262.0,896379
2,6945,3247.0,897239
2,6950,3247.0,898234
2,6955,3219.0,899052
2,6960,3293.0,900047
2,6965,3314.0,901042
2,6970,3312.0,902037
2,6975,3338.0,903032
2,6980,3332.0,904027
2,6985,3332.0,905022
2,6990,3356.0,906017
2,6995,3360.0,907012
2,7000,3348.0,907874
2,7005,3346.0,908869
2,7010,3346.0,909864
2,7015,3344.0,910859
2,7020,3369.0,911854
2,7025,3313.0,912487
2,7030,3338.0,913482
2,7035,3339.0,914477
2,7040,3341.0,915472
2,7045,3354.0,916467
2,7050,3325.0,917285
2,7055,3349.0,918280
2,7060,3346.0,919275
2,7065,3317.0,920085
2,7070,3321.0,921080
2,7075,3322.0,922075
2,7080,3325.0,923070
2,7085,3295.0,923880
2,7090,3295.0,924875
2,7095,3294.0,925870
2,7100,3305.0,926865
2,7105,3306.0,927809
2,7110,3307.0,928804
2,7115,3308.0,929799
2,7120,3292.0,930765
2,7125,3311.0,931609
2,7130,3313.0,932604
2,7135,3311.0,933532
2,7140,3313.0,934474
2,7145,3316.0,935469
2,7150,3345.0,936464
2,7155,3322.0,937209
2,7160,3300.0,938027
2,7165,3325.0,938999
2,7170,3328.0,939994
2,7175,3327.0,940989
2,7180,3307.0,941819
2,7185,3327.0,942679
2,7190,3329.0,943589
2,7195,3325.0,944584
2,7200,3323.0,945488
2,7205,3324.0,946412
2,7210,3325.0,947346
2,7215,3325.0,948314
2,7220,3343.0,949309
2,7225,3378.0,950304
2,7230,3371.0,951299
2,7235,3373.0,952294
2,7240,3371.0,953289
2,7245,3369.0,954223
2,7250,3364.0,955181
2,7255,3391.0,956176
2,7260,3419.0,957171
2,7265,3396.0,957991
2,7270,3395.0,958986
2,7275,3370.0,959806
2,7280,3388.0,960801
2,7285,3393.0,961796
2,7290,3385.0,962791
2,7295,3363.0,963609
2,7300,3365.0,964604
2,7305,3365.0,965524
2,7310,3365.0,966490
2,7315,3365.0,967485
2,7320,3364.0,968480
2,7325,3365.0,969475
2,7330,3368.0,970470
2,7335,3338.0,971280
2,7340,3340.0,972275
2,7345,3343.0,973270
2,7350,3317.0,974080
2,7355,3312.0,975075
2,7360,3309.0,976070
2,7365,3337.0,977065
2,7370,3336.0,978060
2,7375,3361.0,979055
2,7380,3364.0,980050
2,7385,3370.0,981045
2,7390,3376.0,982040
2,7395,3400.0,983035
2,7400,3389.0,983820
2,7405,3386.0,984815
2,7410,3382.0,985810
2,7415,3379.0,986805
2,7420,3379.0,987800
2,7425,3350.0,988618
2,7430,3352.0,989613
2,7435,3379.0,990608
2,7440,3377.0,991603
2,7445,3374.0,992598
2,7450,3373.0,993408
2,7455,3379.0,994403
2,7460,3382.0,995398
2,7465,3320.0,996023
2,7470,3319.0,997018
2,7475,3319.0,998013
2,7480,3320.0,999008
2,7485,3314.0,999905
2,7490,3291.0,1000900
2,7495,3290.0,1001895
2,7500,3303.0,1002890
2,7505,3282.0,1003712
2,7510,3285.0,1004707
2,7515,3286.0,1005702
2,7520,3289.0,1006697
2,7525,3320.0,1007692
2,7530,3320.0,1008687
2,7535,3323.0,1009682
2,7540,3320.0,1010677
2,7545,3320.0,1011672
2,7550,3351.0,1012667
2,7555,3349.0,1013662
2,7560,3348.0,1014657
2,7565,3406.0,1015652
2,7570,3409.0,1016647
2,7575,3405.0,1017642
2,7580,3406.0,1018637
2,7585,3387.0,1019455
2,7590,3411.0,1020450
2,7595,3415.0,1021418
2,7600,3403.0,1022278
2,7605,3426.0,1023273
2,7610,3427.0,1024268
2,7615,3426.0,1025263
2,7620,3424.0,1026258
2,7625,3424.0,1027253
2,7630,3426.0,1028248
2,7635,3401.0,1029070
2,7640,3403.0,1030065
2,7645,3405.0,1031060
2,7650,3405.0,1032055
2,7655,3407.0,1033050
2,7660,3379.0,1033860
2,7665,3381.0,1034855
2,7670,3379.0,1035850
2,7675,3384.0,1036845
2,7680,3385.0,1037745
2,7685,3411.0,1038740
2,7690,3410.0,1039735
2,7695,3405.0,1040730
2,7700,3403.0,1041725
2,7705,3404.0,1042713
2,7710,3404.0,1043708
2,7715,3405.0,1044703
2,7720,3405.0,1045698
2,7725,3393.0,1046558
2,7730,3362.0,1047376
2,7735,3357.0,1048139
2,7740,3358.0,1049134
2,7745,3358.0,1050082
2,7750,3357.0,1051056
2,7755,3355.0,1052030
2,7760,3385.0,1053025
2,7765,3385.0,1054020
2,7770,3386.0,1054944
2,7775,3384.0,1055890
2,7780,3384.0,1056790
2,7785,3384.0,1057684
2,7790,3386.0,1058679
2,7795,3387.0,1059579
2,7800,3397.0,1060355
2,7805,3388.0,1061350
2,7810,3389.0,1062345
2,7815,3389.0,1063340
2,7820,3388.0,1064335
2,7825,3373.0,1065155
2,7830,3376.0,1065975
2,7835,3406.0,1066970
2,7840,3407.0,1067965
2,7845,3407.0,1068960
2,7850,3405.0,1069955
2,7855,3406.0,1070950
2,7860,3404.0,1071945
2,7865,3401.0,1072940
2,7870,3400.0,1073866
2,7875,3402.0,1074861
2,7880,3397.0,1075856
2,7885,3391.0,1076851
2,7890,3391.0,1077821
2,7895,3394.0,1078767
2,7900,3397.0,1079762
2,7905,3403.0,1080757
2,7910,3402.0,1081751
2,7915,3405.0,1082721
2,7920,3405.0,1083716
2,7925,3431.0,1084711
2,7930,3456.0,1085706
2,7935,3457.0,1086701
2,7940,3458.0,1087673
2,7945,3458.0,1088668
2,7950,3461.0,1089663
2,7955,3436.0,1090408
2,7960,3438.0,1091403
2,7965,3441.0,1092397
2,7970,3440.0,1093392
2,7975,3439.0,1094338
2,7980,3441.0,1095333
2,7985,3445.0,1096328
2,7990,3444.0,1097323
2,7995,3443.0,1098318
2,8000,3443.0,1099264
2,8005,3446.0,1100259
2,8010,3447.0,1101254
2,8015,3445.0,1102249
2,8020,3418.0,1103061
2,8025,3419.0,1104056
2,8030,3421.0,1105051
2,8035,3418.0,1106046
2,8040,3418.0,1107041
2,8045,3415.0,1108036
2,8050,3413.0,1109031
2,8055,3438.0,1109977
2,8060,3437.0,1110972
2,8065,3439.0,1111967
2,8070,3442.0,1112962
2,8075,3438.0,1113957
2,8080,3440.0,1114952
2,8085,3439.0,1115947
2,8090,3440.0,1116818
2,8095,3441.0,1117813
2,8100,3439.0,1118783
2,8105,3438.0,1119778
2,8110,3432.0,1120773
2,8115,3433.0,1121768
2,8120,3462.0,1122763
2,8125,3458.0,1123758
2,8130,3458.0,1124753
2,8135,3461.0,1125748
2,8140,3460.0,1126720
2,8145,3462.0,1127715
2,8150,3464.0,1128710
2,8155,3434.0,1129471
2,8160,3432.0,1130466
2,8165,3430.0,1131461
2,8170,3429.0,1132406
2,8175,3434.0,1133401
2,8180,3432.0,1134396
2,8185,3433.0,1135391
2,8190,3431.0,1136386
2,8195,3426.0,1137381
2,8200,3425.0,1138357
2,8205,3426.0,1139352
2,8210,3406.0,1140174
2,8215,3405.0,1141169
2,8220,3404.0,1142058
2,8225,3407.0,1143053
2,8230,3377.0,1143869
2,8235,3375.0,1144720
2,8240,3375.0,1145642
2,8245,3375.0,1146637
2,8250,3373.0,1147632
2,8255,3401.0,1148627
2,8260,3402.0,1149622
2,8265,3403.0,1150617
2,8270,3398.0,1151612
2,8275,3396.0,1152607
2,8280,3384.0,1153602
2,8285,3384.0,1154488
2,8290,3381.0,1155483
2,8295,3385.0,1156478
2,8300,3386.0,1157473
2,8305,3381.0,1158468
2,8310,3407.0,1159463
2,8315,3382.0,1160285
2,8320,3380.0,1161280
2,8325,3382.0,1162275
2,8330,3411.0,1163270
2,8335,3412.0,1164265
2,8340,3408.0,1165260
2,8345,3408.0,1166255
2,8350,3410.0,1167250
2,8355,3406.0,1168245
2,8360,3373.0,1169055
2,8365,3371.0,1170050
2,8370,3374.0,1171045
2,8375,3373.0,1172040
2,8380,3358.0,1172860
2,8385,3360.0,1173855
2,8390,3363.0,1174850
2,8395,3364.0,1175845
2,8400,3365.0,1176840
2,8405,3368.0,1177812
2,8410,3366.0,1178807
2,8415,3387.0,1179802
2,8420,3387.0,1180797
2,8425,3384.0,1181792
2,8430,3384.0,1182787
2,8435,3380.0,1183782
2,8440,3384.0,1184776
2,8445,3384.0,1185771
2,8450,3381.0,1186766
2,8455,3386.0,1187761
2,8460,3420.0,1188756
2,8465,3421.0,1189751
2,8470,3422.0,1190746
2,8475,3402.0,1191741
2,8480,3431.0,1192736
2,8485,3429.0,1193731
2,8490,3429.0,1194726
2,8495,3428.0,1195721
2,8500,3427.0,1196716
2,8505,3430.0,1197711
2,8510,3430.0,1198706
2,8515,3432.0,1199701
2,8520,3435.0,1200696
2,8525,3434.0,1201691
2,8530,3431.0,1202686
2,8535,3434.0,1203681
2,8540,3433.0,1204676
2,8545,3433.0,1205671
2,8550,3407.0,1206483
2,8555,3408.0,1207478
2,8560,3406.0,1208473
2,8565,3405.0,1209468
2,8570,3406.0,1210463
2,8575,3428.0,1211458
2,8580,3428.0,1212453
2,8585,3428.0,1213448
2,8590,3427.0,1214443
2,8595,3426.0,1215438
2,8600,3427.0,1216330
2,8605,3420.0,1217325
2,8610,3422.0,1218320
2,8615,3425.0,1219315
2,8620,3422.0,1220310
2,8625,3426.0,1221305
2,8630,3426.0,1222300
2,8635,3427.0,1223295
2,8640,3427.0,1224290
2,8645,3428.0,1225285
2,8650,3457.0,1226231
2,8655,3458.0,1227226
2,8660,3433.0,1228044
2,8665,3431.0,1229039
2,8670,3430.0,1230034
2,8675,3429.0,1231029
2,8680,3428.0,1232024
2,8685,3400.0,1232842
2,8690,3400.0,1233837
2,8695,3372.0,1234649
2,8700,3346.0,1235467
2,8705,3322.0,1236279
2,8710,3294.0,1237097
2,8715,3294.0,1238092
2,8720,3295.0,1239087
2,8725,3294.0,1240082
2,8730,3296.0,1241077
2,8735,3292.0,1242072
2,8740,3289.0,1243004
2,8745,3290.0,1243999
2,8750,3285.0,1244994
2,8755,3279.0,1245892
2,8760,3306.0,1246887
2,8765,3308.0,1247837
2,8770,3308.0,1248827
2,8775,3310.0,1249822
2,8780,3311.0,1250817
2,8785,3337.0,1251812
2,8790,3338.0,1252806
2,8795,3366.0,1253801
2,8800,3392.0,1254796
2,8805,3391.0,1255608
2,8810,3417.0,1256603
2,8815,3414.0,1257598
2,8820,3415.0,1258592
2,8825,3411.0,1259536
2,8830,3412.0,1260531
2,8835,3411.0,1261526
2,8840,3413.0,1262521
2,8845,3380.0,1263331
2,8850,3385.0,1264255
2,8855,3389.0,1265250
2,8860,3389.0,1266245
2,8865,3390.0,1267240
2,8870,3378.0,1268235
2,8875,3375.0,1269230
2,8880,3370.0,1270225
2,8885,3367.0,1271220
2,8890,3363.0,1272215
2,8895,3355.0,1273087
2,8900,3352.0,1274082
2,8905,3384.0,1275077
2,8910,3386.0,1276072
2,8915,3363.0,1276892
2,8920,3362.0,1277887
2,8925,3337.0,1278705
2,8930,3338.0,1279700
2,8935,3340.0,1280674
2,8940,3343.0,1281669
2,8945,3372.0,1282664
2,8950,3372.0,1283659
2,8955,3374.0,1284654
2,8960,3352.0,1285649
2,8965,3340.0,1286509
2,8970,3350.0,1287504
2,8975,3319.0,1288314
2,8980,3323.0,1289256
2,8985,3327.0,1290251
2,8990,3329.0,1291246
2,8995,3336.0,1292241
2,9000,3340.0,1293236
2,9005,3338.0,1294186
2,9010,3334.0,1295181
2,9015,3360.0,1296084
2,9020,3333.0,1296902
2,9025,3361.0,1297897
2,9030,3362.0,1298786
2,9035,3336.0,1299467
2,9040,3332.0,1300462
2,9045,3331.0,1301457
2,9050,3328.0,1302452
2,9055,3328.0,1303447
2,9060,3349.0,1304442
2,9065,3357.0,1305437
2,9070,3357.0,1306432
2,9075,3391.0,1307427
2,9080,3391.0,1308329
2,9085,3393.0,1309324
2,9090,3395.0,1310319
2,9095,3395.0,1311314
2,9100,3392.0,1312309
2,9105,3339.0,1312943
2,9110,3313.0,1313753
2,9115,3311.0,1314747
2,9120,3321.0,1315742
2,9125,3320.0,1316737
2,9130,3319.0,1317681
2,9135,3346.0,1318676
2,9140,3321.0,1319496
2,9145,3325.0,1320491
2,9150,3327.0,1321437
2,9155,3326.0,1322432
2,9160,3324.0,1323427
2,9165,3326.0,1324422
2,9170,3324.0,1325417
2,9175,3320.0,1326412
2,9180,3318.0,1327407
2,9185,3292.0,1328229
2,9190,3294.0,1329224
2,9195,3291.0,1330219
2,9200,3294.0,1331214
2,9205,3346.0,1332209
2,9210,3347.0,1333029
2,9215,3346.0,1334024
2,9220,3366.0,1335019
2,9225,3368.0,1336014
2,9230,3364.0,1337009
2,9235,3366.0,1337967
2,9240,3394.0,1338962
2,9245,3395.0,1339957
2,9250,3394.0,1340952
2,9255,3395.0,1341947
2,9260,3396.0,1342942
2,9265,3398.0,1343937
2,9270,3401.0,1344879
2,9275,3375.0,1345697
2,9280,3375.0,1346692
2,9285,3402.0,1347612
2,9290,3395.0,1348607
2,9295,3400.0,1349602
2,9300,3400.0,1350597
2,9305,3402.0,1351592
2,9310,3431.0,1352548
2,9315,3433.0,1353543
2,9320,3429.0,1354538
2,9325,3425.0,1355533
2,9330,3425.0,1356467
2,9335,3425.0,1357462
2,9340,3391.0,1358274
2,9345,3389.0,1359269
2,9350,3359.0,1360079
2,9355,3355.0,1361074
2,9360,3355.0,1362069
2,9365,3356.0,1363064
2,9370,3356.0,1364059
2,9375,3386.0,1365054
2,9380,3387.0,1366049
2,9385,3383.0,1367044
2,9390,3390.0,1368039
2,9395,3388.0,1369034
2,9400,3389.0,1370029
2,9405,3388.0,1371024
2,9410,3384.0,1372019
2,9415,3386.0,1373014
2,9420,3389.0,1374009
2,9425,3391.0,1375004
2,9430,3395.0,1375999
2,9435,3392.0,1376994
2,9440,3427.0,1377989
2,9445,3416.0,1378984
2,9450,3449.0,1379979
2,9455,3450.0,1380974
2,9460,3422.0,1381784
2,9465,3420.0,1382718
2,9470,3418.0,1383713
2,9475,3418.0,1384708
2,9480,3417.0,1385703
2,9485,3419.0,1386698
2,9490,3414.0,1387693
2,9495,3416.0,1388688
2,9500,3389.0,1389508
2,9505,3359.0,1390320
2,9510,3361.0,1391315
2,9515,3332.0,1392114
2,9520,3330.0,1393109
2,9525,3333.0,1394104
2,9530,3321.0,1395099
2,9535,3322.0,1396094
2,9540,3318.0,1397089
2,9545,3302.0,1397901
2,9550,3301.0,1398896
2,9555,3266.0,1399587
2,9560,3296.0,1400582
2,9565,3294.0,1401577
2,9570,3297.0,1402572
2,9575,3297.0,1403567
2,9580,3283.0,1404409
2,9585,3282.0,1405404
2,9590,3287.0,1406399
2,9595,3284.0,1407394
2,9600,3310.0,1408389
2,9605,3341.0,1409359
2,9610,3336.0,1410354
2,9615,3361.0,1411349
2,9620,3362.0,1412344
2,9625,3361.0,1413339
2,9630,3374.0,1414334
2,9635,3375.0,1415329
2,9640,3378.0,1416324
2,9645,3406.0,1417282
2,9650,3406.0,1418240
2,9655,3444.0,1419235
2,9660,3444.0,1420230
2,9665,3422.0,1421050
2,9670,3423.0,1422032
2,9675,3422.0,1423027
2,9680,3433.0,1424022
2,9685,3432.0,1425017
2,9690,3406.0,1425837
2,9695,3410.0,1426832
2,9700,3389.0,1427827
2,9705,3389.0,1428761
2,9710,3395.0,1429751
2,9715,3394.0,1430733
2,9720,3395.0,1431728
2,9725,3392.0,1432723
2,9730,3390.0,1433718
2,9735,3389.0,1434713
2,9740,3387.0,1435708
2,9745,3386.0,1436703
2,9750,3385.0,1437698
2,9755,3384.0,1438693
2,9760,3379.0,1439688
2,9765,3405.0,1440683
2,9770,3373.0,1441493
2,9775,3374.0,1442411
2,9780,3355.0,1443233
2,9785,3358.0,1444228
2,9790,3382.0,1445223
2,9795,3380.0,1446218
2,9800,3400.0,1447213
2,9805,3399.0,1448208
2,9810,3398.0,1449190
2,9815,3401.0,1450185
2,9820,3399.0,1451180
2,9825,3398.0,1452175
2,9830,3399.0,1453133
2,9835,3402.0,1454103
2,9840,3404.0,1455098
2,9845,3406.0,1456093
2,9850,3404.0,1457075
2,9855,3402.0,1458057
2,9860,3406.0,1459007
2,9865,3406.0,1460002
2,9870,3439.0,1460997
2,9875,3439.0,1461953
2,9880,3463.0,1462948
2,9885,3464.0,1463943
2,9890,3436.0,1464755
2,9895,3438.0,1465750
2,9900,3437.0,1466660
2,9905,3438.0,1467655
2,9910,3438.0,1468650
2,9915,3438.0,1469632
2,9920,3407.0,1470381
2,9925,3411.0,1471376
2,9930,3409.0,1472371
2,9935,3407.0,1473366
2,9940,3406.0,1474361
2,9945,3404.0,1475356
2,9950,3405.0,1476351
2,9955,3406.0,1477346
2,9960,3405.0,1478341
2,9965,3405.0,1479336
2,9970,3403.0,1480331
2,9975,3402.0,1481326
2,9980,3403.0,1482321
2,9985,3402.0,1483255
2,9990,3430.0,1484250
2,9995,3429.0,1485160
2,10000,3431.0,1486155
2,10005,3429.0,1487077
2,10010,3430.0,1488072
2,10015,3432.0,1489028
2,10020,3382.0,1489435
2,10025,3383.0,1490430
2,10030,3354.0,1491227
2,10035,3355.0,1492222
2,10040,3357.0,1493217
2,10045,3327.0,1494027
2,10050,3298.0,1494837
2,10055,3298.0,1495832
2,10060,3296.0,1496827
2,10065,3294.0,1497822
2,10070,3291.0,1498817
2,10075,3291.0,1499812
