% time spent exploring,episodes,mean 100 episode reward,steps
99,5,375.0,638
99,10,344.4,1195
99,15,414.3,2037
99,20,394.7,2659
98,25,412.5,3438
98,30,403.4,3876
98,35,405.9,4574
98,40,428.2,5170
98,45,406.8,5559
97,50,432.7,6295
97,55,438.9,6850
97,60,447.5,7418
97,65,453.1,8107
97,70,442.0,8441
97,75,443.2,8992
96,80,440.5,9719
96,85,460.7,10466
96,90,459.6,11076
96,95,474.5,12071
95,100,477.8,12677
95,105,491.0,13438
95,110,495.0,14133
95,115,506.0,14676
95,120,503.0,15194
94,125,497.0,15676
94,130,502.0,16150
94,135,509.0,16651
94,140,507.0,17291
94,145,517.0,17910
93,150,516.0,18741
93,155,527.0,19556
93,160,541.0,20217
93,165,557.0,20915
92,170,575.0,21645
92,175,578.0,22242
92,180,595.0,22841
92,185,583.0,23386
92,190,595.0,24098
91,195,584.0,24653
91,200,587.0,25256
91,205,589.0,26063
91,210,598.0,26671
91,215,590.0,27230
90,220,613.0,27874
90,225,623.0,28437
90,230,630.0,29128
90,235,637.0,29775
90,240,622.0,30401
89,245,627.0,31035
89,250,627.0,31652
89,255,630.0,32467
89,260,633.0,33126
88,265,618.0,33891
88,270,613.0,34467
88,275,615.0,35087
88,280,609.0,35610
88,285,628.0,36238
87,290,627.0,36877
87,295,630.0,37432
87,300,620.0,37801
87,305,613.0,38341
87,310,629.0,39143
87,315,636.0,39727
86,320,630.0,40318
86,325,644.0,41080
86,330,653.0,41781
86,335,648.0,42358
85,340,670.0,42926
85,345,691.0,43808
85,350,687.0,44379
85,355,672.0,44975
85,360,664.0,45550
84,365,702.0,46331
84,370,724.0,47150
84,375,740.0,48015
84,380,742.0,48727
83,385,735.0,49564
83,390,734.0,50288
83,395,760.0,51158
83,400,779.0,51796
82,405,795.0,52565
82,410,774.0,53113
82,415,772.0,53767
82,420,790.0,54513
82,425,762.0,54807
81,430,750.0,55329
81,435,774.0,56233
81,440,789.0,56956
81,445,775.0,57564
81,450,792.0,58120
80,455,802.0,58809
80,460,810.0,59594
80,465,802.0,60509
79,470,807.0,61355
79,475,793.0,61996
79,480,811.0,62845
79,485,835.0,63795
78,490,851.0,64689
78,495,834.0,65123
78,500,835.0,65706
78,505,816.0,66173
78,510,817.0,66608
77,515,833.0,67350
77,520,832.0,67958
77,525,869.0,68806
77,530,901.0,69570
77,535,892.0,70256
76,540,888.0,70932
76,545,892.0,71659
76,550,881.0,72297
76,555,887.0,72804
76,560,879.0,73377
75,565,859.0,74003
75,570,860.0,74743
75,575,889.0,75608
75,580,888.0,76259
74,585,874.0,76823
74,590,873.0,77392
74,595,876.0,77987
74,600,875.0,78685
74,605,878.0,79265
73,610,896.0,79898
73,615,912.0,80592
73,620,900.0,81097
73,625,898.0,81608
73,630,886.0,82306
72,635,892.0,83019
72,640,886.0,83531
72,645,905.0,84338
72,650,933.0,85063
71,655,944.0,85733
71,660,966.0,86387
71,665,987.0,87127
71,670,980.0,87822
71,675,976.0,88609
70,680,971.0,89249
70,685,956.0,89610
70,690,935.0,89926
70,695,964.0,90546
70,700,974.0,91255
70,705,984.0,91671
69,710,998.0,92353
69,715,982.0,93073
69,720,993.0,93992
69,725,983.0,94662
68,730,1003.0,95510
68,735,993.0,95970
68,740,1011.0,96731
68,745,1001.0,97302
67,750,995.0,98009
67,755,1014.0,98877
67,760,1016.0,99664
67,765,986.0,100181
67,770,1005.0,100943
66,775,1002.0,101760
66,780,1008.0,102422
66,785,1024.0,103018
66,790,1056.0,103650
65,795,1033.0,104303
65,800,1052.0,105036
65,805,1083.0,105730
65,810,1076.0,106361
65,815,1087.0,107055
64,820,1076.0,107382
64,825,1081.0,107871
64,830,1092.0,108698
64,835,1106.0,109363
64,840,1097.0,109808
63,845,1108.0,110341
63,850,1111.0,110935
63,855,1086.0,111356
63,860,1080.0,111905
63,865,1108.0,112484
63,870,1081.0,112812
62,875,1082.0,113375
62,880,1088.0,114192
62,885,1087.0,114701
62,890,1085.0,115516
62,895,1080.0,115907
61,900,1094.0,116567
61,905,1076.0,117246
61,910,1095.0,118072
61,915,1090.0,118740
60,920,1108.0,119481
60,925,1127.0,120134
60,930,1127.0,121058
60,935,1125.0,121874
59,940,1149.0,122818
59,945,1169.0,123636
59,950,1154.0,124009
59,955,1166.0,124543
59,960,1163.0,125215
58,965,1160.0,125728
58,970,1181.0,126222
58,975,1184.0,126764
58,980,1161.0,127258
58,985,1174.0,127969
57,990,1189.0,128629
57,995,1197.0,129156
57,1000,1192.0,129969
57,1005,1216.0,130819
56,1010,1236.0,131655
56,1015,1250.0,132532
56,1020,1251.0,133225
56,1025,1243.0,133879
56,1030,1221.0,134376
55,1035,1259.0,135197
55,1040,1250.0,136117
55,1045,1262.0,137018
54,1050,1296.0,137978
54,1055,1294.0,138660
54,1060,1280.0,139210
54,1065,1302.0,139868
54,1070,1318.0,140534
53,1075,1331.0,141353
53,1080,1373.0,142249
53,1085,1382.0,142926
53,1090,1382.0,143633
52,1095,1428.0,144567
52,1100,1406.0,144950
52,1105,1407.0,145796
52,1110,1389.0,146593
51,1115,1407.0,147567
51,1120,1428.0,148215
51,1125,1454.0,148961
51,1130,1485.0,149859
50,1135,1445.0,150170
50,1140,1456.0,150809
50,1145,1457.0,151771
50,1150,1450.0,152576
49,1155,1478.0,153396
49,1160,1508.0,154083
49,1165,1515.0,154898
49,1170,1503.0,155655
48,1175,1506.0,156426
48,1180,1510.0,157222
48,1185,1530.0,157990
48,1190,1523.0,158407
47,1195,1520.0,159225
47,1200,1521.0,159970
47,1205,1537.0,160798
47,1210,1546.0,161565
46,1215,1542.0,162246
46,1220,1542.0,163043
46,1225,1544.0,163810
46,1230,1543.0,164526
46,1235,1583.0,165148
45,1240,1601.0,165953
45,1245,1583.0,166658
45,1250,1592.0,167423
45,1255,1585.0,168079
44,1260,1614.0,168904
44,1265,1630.0,169788
44,1270,1623.0,170256
44,1275,1640.0,170956
43,1280,1660.0,171924
43,1285,1637.0,172443
43,1290,1633.0,172987
43,1295,1638.0,173807
43,1300,1639.0,174202
42,1305,1636.0,175118
42,1310,1624.0,175923
42,1315,1624.0,176735
42,1320,1643.0,177540
41,1325,1640.0,178197
41,1330,1661.0,179091
41,1335,1638.0,179717
41,1340,1639.0,180426
40,1345,1667.0,181254
40,1350,1683.0,181851
40,1355,1716.0,182658
40,1360,1702.0,183417
39,1365,1703.0,184373
39,1370,1733.0,185110
39,1375,1739.0,185852
38,1380,1750.0,186847
38,1385,1756.0,187371
38,1390,1791.0,188199
38,1395,1803.0,189051
37,1400,1869.0,190046
37,1405,1866.0,190741
37,1410,1863.0,191208
37,1415,1886.0,191949
37,1420,1848.0,192360
36,1425,1870.0,193266
36,1430,1858.0,194100
36,1435,1893.0,195012
36,1440,1889.0,195717
35,1445,1882.0,196500
35,1450,1893.0,197218
35,1455,1881.0,198056
35,1460,1915.0,198765
34,1465,1917.0,199604
34,1470,1924.0,200456
34,1475,1894.0,200791
34,1480,1899.0,201605
33,1485,1916.0,202229
33,1490,1934.0,203057
33,1495,1928.0,203806
33,1500,1934.0,204801
32,1505,1954.0,205581
32,1510,1992.0,206282
32,1515,1964.0,206870
32,1520,2008.0,207768
31,1525,2028.0,208763
31,1530,2057.0,209635
31,1535,2036.0,210090
31,1540,2024.0,210629
31,1545,2012.0,211142
30,1550,2033.0,212050
30,1555,2041.0,212690
30,1560,2046.0,213644
29,1565,2061.0,214491
29,1570,2053.0,215043
29,1575,2089.0,215580
29,1580,2037.0,215840
29,1585,2079.0,216641
28,1590,2095.0,217636
28,1595,2106.0,218631
28,1600,2100.0,219490
28,1605,2123.0,220391
27,1610,2150.0,221386
27,1615,2174.0,222206
27,1620,2197.0,223068
26,1625,2183.0,223817
26,1630,2191.0,224655
26,1635,2236.0,225650
26,1640,2289.0,226496
25,1645,2307.0,227187
25,1650,2305.0,228033
25,1655,2320.0,229028
24,1660,2307.0,229860
24,1665,2294.0,230718
24,1670,2334.0,231713
24,1675,2352.0,232563
23,1680,2419.0,233558
23,1685,2417.0,234368
23,1690,2405.0,235180
22,1695,2413.0,235979
22,1700,2404.0,236690
22,1705,2397.0,237425
22,1710,2396.0,238420
21,1715,2401.0,239097
21,1720,2390.0,240092
21,1725,2404.0,240954
21,1730,2404.0,241824
20,1735,2391.0,242517
20,1740,2372.0,243125
20,1745,2376.0,243780
20,1750,2386.0,244775
19,1755,2369.0,245591
19,1760,2371.0,246308
19,1765,2379.0,247061
19,1770,2356.0,247784
18,1775,2358.0,248779
18,1780,2365.0,249774
18,1785,2359.0,250622
17,1790,2360.0,251434
17,1795,2359.0,252277
17,1800,2367.0,253139
17,1805,2363.0,253910
16,1810,2343.0,254718
16,1815,2387.0,255671
16,1820,2397.0,256617
15,1825,2408.0,257612
15,1830,2385.0,258424
15,1835,2403.0,259286
14,1840,2435.0,260220
14,1845,2469.0,261146
14,1850,2463.0,261821
14,1855,2476.0,262633
13,1860,2494.0,263461
13,1865,2518.0,264230
13,1870,2529.0,265066
13,1875,2534.0,265920
12,1880,2541.0,266902
12,1885,2558.0,267731
12,1890,2569.0,268717
11,1895,2590.0,269663
11,1900,2592.0,270361
11,1905,2606.0,271356
11,1910,2642.0,272245
10,1915,2635.0,273115
10,1920,2632.0,273835
10,1925,2630.0,274830
9,1930,2677.0,275765
9,1935,2661.0,276591
9,1940,2665.0,277515
9,1945,2669.0,278333
8,1950,2670.0,279021
8,1955,2679.0,279814
8,1960,2703.0,280809
8,1965,2713.0,281513
7,1970,2748.0,282307
7,1975,2761.0,283192
7,1980,2757.0,283952
7,1985,2723.0,284611
6,1990,2694.0,285103
6,1995,2702.0,285948
6,2000,2723.0,286822
6,2005,2749.0,287688
5,2010,2739.0,288415
5,2015,2743.0,289328
5,2020,2783.0,290247
4,2025,2798.0,291024
4,2030,2792.0,291994
4,2035,2828.0,292989
3,2040,2844.0,293926
3,2045,2853.0,294869
3,2050,2874.0,295864
3,2055,2884.0,296687
2,2060,2864.0,297398
2,2065,2876.0,298356
2,2070,2896.0,299320
2,2075,2915.0,300315
2,2080,2916.0,300957
2,2085,2966.0,301952
2,2090,3023.0,302947
2,2095,3030.0,303607
2,2100,3073.0,304383
2,2105,3106.0,305219
2,2110,3125.0,306214
2,2115,3161.0,306982
2,2120,3130.0,307791
2,2125,3167.0,308703
2,2130,3175.0,309381
2,2135,3163.0,310209
2,2140,3169.0,311064
2,2145,3171.0,311807
2,2150,3157.0,312598
2,2155,3188.0,313427
2,2160,3205.0,314081
2,2165,3218.0,314993
2,2170,3179.0,315484
2,2175,3198.0,316252
2,2180,3224.0,317238
2,2185,3234.0,318060
2,2190,3241.0,318893
2,2195,3278.0,319484
2,2200,3265.0,320103
2,2205,3242.0,320961
2,2210,3256.0,321838
2,2215,3247.0,322683
2,2220,3277.0,323419
2,2225,3254.0,324414
2,2230,3270.0,325317
2,2235,3292.0,326194
2,2240,3302.0,326940
2,2245,3333.0,327661
2,2250,3357.0,328580
2,2255,3375.0,329434
2,2260,3415.0,330355
2,2265,3437.0,331189
2,2270,3464.0,331823
2,2275,3465.0,332574
2,2280,3484.0,333289
2,2285,3492.0,334205
2,2290,3469.0,335031
2,2295,3450.0,335906
2,2300,3435.0,336527
2,2305,3461.0,337250
2,2310,3479.0,337949
2,2315,3467.0,338532
2,2320,3503.0,339193
2,2325,3545.0,339856
2,2330,3521.0,340564
2,2335,3532.0,341476
2,2340,3539.0,342218
2,2345,3521.0,342797
2,2350,3532.0,343563
2,2355,3513.0,344376
2,2360,3483.0,345371
2,2365,3448.0,346093
2,2370,3469.0,346883
2,2375,3449.0,347481
2,2380,3416.0,348073
2,2385,3431.0,348820
2,2390,3462.0,349401
2,2395,3474.0,350226
2,2400,3509.0,350876
2,2405,3486.0,351542
2,2410,3493.0,352277
2,2415,3486.0,352941
2,2420,3459.0,353781
2,2425,3415.0,354743
2,2430,3436.0,355489
2,2435,3425.0,356382
2,2440,3420.0,357212
2,2445,3416.0,358024
2,2450,3398.0,358671
2,2455,3407.0,359274
2,2460,3407.0,359934
2,2465,3414.0,360679
2,2470,3432.0,361348
2,2475,3449.0,362225
2,2480,3471.0,363026
2,2485,3455.0,363808
2,2490,3450.0,364416
2,2495,3463.0,365077
2,2500,3443.0,365869
2,2505,3453.0,366633
2,2510,3380.0,367091
2,2515,3403.0,367924
2,2520,3438.0,368638
2,2525,3454.0,369353
2,2530,3478.0,370088
2,2535,3516.0,370782
2,2540,3522.0,371698
2,2545,3546.0,372417
2,2550,3581.0,373331
2,2555,3582.0,374157
2,2560,3594.0,375073
2,2565,3626.0,375818
2,2570,3618.0,376487
2,2575,3609.0,377385
2,2580,3631.0,378238
2,2585,3658.0,378949
2,2590,3689.0,379744
2,2595,3657.0,380451
2,2600,3683.0,381214
2,2605,3701.0,381869
2,2610,3778.0,382471
2,2615,3780.0,383244
2,2620,3756.0,384077
2,2625,3769.0,384782
2,2630,3765.0,385633
2,2635,3725.0,386291
2,2640,3713.0,386792
2,2645,3705.0,387621
2,2650,3709.0,388298
2,2655,3733.0,388964
2,2660,3708.0,389668
2,2665,3645.0,390338
2,2670,3592.0,391054
2,2675,3575.0,391740
2,2680,3547.0,392432
2,2685,3512.0,392996
2,2690,3487.0,393585
2,2695,3481.0,394454
2,2700,3439.0,395031
2,2705,3402.0,395862
2,2710,3380.0,396701
2,2715,3354.0,397368
2,2720,3334.0,398040
2,2725,3352.0,398655
2,2730,3350.0,399490
2,2735,3394.0,400157
2,2740,3386.0,401152
2,2745,3389.0,401906
2,2750,3359.0,402755
2,2755,3353.0,403474
2,2760,3383.0,404385
2,2765,3436.0,405216
2,2770,3462.0,406004
2,2775,3479.0,406655
2,2780,3502.0,407362
2,2785,3539.0,407939
2,2790,3567.0,408571
2,2795,3590.0,409306
2,2800,3614.0,410065
2,2805,3624.0,410812
2,2810,3628.0,411568
2,2815,3634.0,412181
2,2820,3660.0,413015
2,2825,3625.0,413993
2,2830,3615.0,414691
2,2835,3610.0,415452
2,2840,3630.0,416187
2,2845,3626.0,417044
2,2850,3628.0,417817
2,2855,3630.0,418561
2,2860,3650.0,419225
2,2865,3640.0,420099
2,2870,3674.0,420762
2,2875,3671.0,421494
2,2880,3672.0,422216
2,2885,3663.0,423106
2,2890,3619.0,423768
2,2895,3625.0,424595
2,2900,3621.0,425284
2,2905,3641.0,426029
2,2910,3660.0,426737
2,2915,3691.0,427430
2,2920,3694.0,428173
2,2925,3688.0,429058
2,2930,3703.0,429883
2,2935,3651.0,430681
2,2940,3655.0,431515
2,2945,3680.0,432206
2,2950,3715.0,432986
2,2955,3693.0,433927
2,2960,3660.0,434873
2,2965,3661.0,435677
2,2970,3643.0,436544
2,2975,3639.0,437303
2,2980,3610.0,438298
2,2985,3609.0,439044
2,2990,3637.0,439715
2,2995,3636.0,440548
2,3000,3654.0,441218
2,3005,3666.0,441883
2,3010,3653.0,442686
2,3015,3653.0,443404
2,3020,3641.0,444263
2,3025,3669.0,445013
2,3030,3643.0,446008
2,3035,3669.0,446923
2,3040,3681.0,447632
2,3045,3663.0,448510
2,3050,3648.0,449331
2,3055,3667.0,450117
2,3060,3678.0,450890
2,3065,3682.0,451726
2,3070,3656.0,452467
2,3075,3685.0,453133
2,3080,3689.0,454013
2,3085,3659.0,455008
2,3090,3663.0,455754
2,3095,3657.0,456442
2,3100,3629.0,457356
2,3105,3613.0,458159
2,3110,3594.0,459064
2,3115,3593.0,459885
2,3120,3607.0,460638
2,3125,3615.0,461238
2,3130,3638.0,462117
2,3135,3640.0,462946
2,3140,3616.0,463688
2,3145,3635.0,464348
2,3150,3641.0,465174
2,3155,3616.0,465797
2,3160,3632.0,466519
2,3165,3643.0,467346
2,3170,3671.0,468190
2,3175,3678.0,468947
2,3180,3692.0,469923
2,3185,3707.0,470738
2,3190,3697.0,471661
2,3195,3693.0,472553
2,3200,3726.0,473159
2,3205,3709.0,474069
2,3210,3722.0,474981
2,3215,3721.0,475927
2,3220,3699.0,476875
2,3225,3685.0,477807
2,3230,3680.0,478631
2,3235,3692.0,479333
2,3240,3699.0,480125
2,3245,3683.0,480870
2,3250,3669.0,481786
2,3255,3680.0,482626
2,3260,3641.0,483454
2,3265,3647.0,484268
2,3270,3658.0,484983
2,3275,3646.0,485614
2,3280,3659.0,486440
2,3285,3679.0,487119
2,3290,3705.0,487687
2,3295,3720.0,488347
2,3300,3695.0,489292
2,3305,3679.0,490120
2,3310,3677.0,490968
2,3315,3671.0,491765
2,3320,3679.0,492417
2,3325,3679.0,493171
2,3330,3668.0,494018
2,3335,3646.0,494864
2,3340,3628.0,495444
2,3345,3635.0,496102
2,3350,3636.0,496674
2,3355,3634.0,497286
2,3360,3630.0,497921
2,3365,3619.0,498603
2,3370,3612.0,499515
2,3375,3617.0,500312
2,3380,3626.0,500941
2,3385,3632.0,501519
2,3390,3612.0,502464
2,3395,3601.0,503348
2,3400,3590.0,504102
2,3405,3587.0,504745
2,3410,3584.0,505565
2,3415,3600.0,506228
2,3420,3610.0,506985
2,3425,3598.0,507709
2,3430,3608.0,508461
2,3435,3628.0,509417
2,3440,3637.0,510287
2,3445,3626.0,511128
2,3450,3620.0,511939
2,3455,3622.0,512809
2,3460,3675.0,513565
2,3465,3693.0,514185
2,3470,3711.0,514864
2,3475,3723.0,515544
2,3480,3707.0,516292
2,3485,3703.0,516942
2,3490,3714.0,517653
2,3495,3724.0,518374
2,3500,3750.0,519132
2,3505,3761.0,519900
2,3510,3781.0,520649
2,3515,3754.0,521201
2,3520,3771.0,521787
2,3525,3771.0,522584
2,3530,3774.0,523312
2,3535,3783.0,524001
2,3540,3764.0,524534
2,3545,3765.0,525205
2,3550,3796.0,525829
2,3555,3820.0,526539
2,3560,3787.0,527204
2,3565,3773.0,528016
2,3570,3728.0,528734
2,3575,3724.0,529346
2,3580,3713.0,529929
2,3585,3713.0,530614
2,3590,3705.0,531279
2,3595,3708.0,531986
2,3600,3721.0,532686
2,3605,3763.0,533283
2,3610,3746.0,533957
2,3615,3742.0,534705
2,3620,3715.0,535553
2,3625,3744.0,536203
2,3630,3748.0,536781
2,3635,3703.0,537300
2,3640,3733.0,537954
2,3645,3724.0,538747
2,3650,3708.0,539540
2,3655,3703.0,540138
2,3660,3729.0,540758
2,3665,3689.0,541339
2,3670,3694.0,541997
2,3675,3694.0,542625
2,3680,3717.0,543534
2,3685,3709.0,544228
2,3690,3726.0,544858
2,3695,3687.0,545434
2,3700,3669.0,546087
2,3705,3632.0,546677
2,3710,3634.0,547176
2,3715,3651.0,547779
2,3720,3663.0,548442
2,3725,3656.0,549033
2,3730,3630.0,549616
2,3735,3658.0,550390
2,3740,3622.0,551101
2,3745,3633.0,551948
2,3750,3638.0,552528
2,3755,3630.0,553108
2,3760,3637.0,553779
2,3765,3687.0,554426
2,3770,3725.0,555025
2,3775,3731.0,555671
2,3780,3718.0,556325
2,3785,3726.0,556903
2,3790,3702.0,557520
2,3795,3711.0,558015
2,3800,3724.0,558768
2,3805,3760.0,559364
2,3810,3771.0,559941
2,3815,3761.0,560580
2,3820,3759.0,561268
2,3825,3767.0,561855
2,3830,3796.0,562427
2,3835,3814.0,563012
2,3840,3856.0,563597
2,3845,3855.0,564280
2,3850,3821.0,564774
2,3855,3812.0,565353
2,3860,3791.0,566114
2,3865,3741.0,566864
2,3870,3718.0,567819
2,3875,3719.0,568478
2,3880,3717.0,569155
2,3885,3710.0,569818
2,3890,3721.0,570548
2,3895,3745.0,571212
2,3900,3740.0,571867
2,3905,3712.0,572363
2,3910,3703.0,573133
2,3915,3701.0,573943
2,3920,3713.0,574685
2,3925,3670.0,575352
2,3930,3651.0,575848
2,3935,3650.0,576514
2,3940,3652.0,577148
2,3945,3668.0,577748
2,3950,3703.0,578440
2,3955,3713.0,579077
2,3960,3738.0,579656
2,3965,3781.0,580404
2,3970,3806.0,581069
2,3975,3794.0,581783
2,3980,3793.0,582544
2,3985,3804.0,583131
2,3990,3802.0,583869
2,3995,3811.0,584452
2,4000,3805.0,585265
2,4005,3833.0,585914
2,4010,3857.0,586495
2,4015,3872.0,587153
2,4020,3869.0,587914
2,4025,3882.0,588412
2,4030,3909.0,588996
2,4035,3911.0,589660
2,4040,3919.0,590240
2,4045,3892.0,590742
2,4050,3901.0,591409
2,4055,3900.0,592131
2,4060,3890.0,592911
2,4065,3891.0,593571
2,4070,3877.0,594330
2,4075,3879.0,594984
2,4080,3887.0,595657
2,4085,3865.0,596489
2,4090,3878.0,597077
2,4095,3857.0,597881
2,4100,3855.0,598712
2,4105,3830.0,599458
2,4110,3750.0,600032
2,4115,3762.0,600612
2,4120,3771.0,601202
2,4125,3789.0,601963
2,4130,3790.0,602636
2,4135,3775.0,603216
2,4140,3747.0,603963
2,4145,3773.0,604692
2,4150,3773.0,605288
2,4155,3786.0,605969
2,4160,3791.0,606634
2,4165,3790.0,607203
2,4170,3795.0,607957
2,4175,3792.0,608578
2,4180,3801.0,609255
2,4185,3821.0,609931
2,4190,3812.0,610524
2,4195,3837.0,611110
2,4200,3843.0,611726
2,4205,3838.0,612301
2,4210,3885.0,613005
2,4215,3877.0,613758
2,4220,3877.0,614360
2,4225,3881.0,615043
2,4230,3868.0,615959
2,4235,3860.0,616540
2,4240,3880.0,617218
2,4245,3881.0,617962
2,4250,3875.0,618571
2,4255,3866.0,619353
2,4260,3869.0,619951
2,4265,3879.0,620615
2,4270,3888.0,621267
2,4275,3878.0,622040
2,4280,3849.0,622954
2,4285,3849.0,623596
2,4290,3846.0,624332
2,4295,3816.0,624843
2,4300,3813.0,625451
2,4305,3843.0,626094
2,4310,3841.0,626755
2,4315,3836.0,627468
2,4320,3836.0,628059
2,4325,3844.0,628730
2,4330,3848.0,629397
2,4335,3830.0,630103
2,4340,3837.0,630682
2,4345,3827.0,631434
2,4350,3821.0,632118
2,4355,3819.0,632796
2,4360,3820.0,633407
2,4365,3809.0,634106
2,4370,3803.0,634772
2,4375,3826.0,635449
2,4380,3854.0,636146
2,4385,3841.0,636897
2,4390,3825.0,637488
2,4395,3855.0,638096
2,4400,3868.0,638779
2,4405,3855.0,639459
2,4410,3886.0,640075
2,4415,3890.0,640861
2,4420,3890.0,641537
2,4425,3890.0,642122
2,4430,3891.0,642801
2,4435,3911.0,643374
2,4440,3898.0,644055
2,4445,3909.0,644727
2,4450,3921.0,645347
2,4455,3930.0,646003
2,4460,3931.0,646602
2,4465,3931.0,647173
2,4470,3936.0,647871
2,4475,3937.0,648473
2,4480,3924.0,649077
2,4485,3912.0,649828
2,4490,3941.0,650416
2,4495,3937.0,651005
2,4500,3939.0,651605
2,4505,3928.0,652351
2,4510,3930.0,652948
2,4515,3931.0,653621
2,4520,3930.0,654222
2,4525,3919.0,654985
2,4530,3927.0,655646
2,4535,3954.0,656304
2,4540,3956.0,657116
2,4545,3949.0,657816
2,4550,3943.0,658459
2,4555,3945.0,659094
2,4560,3946.0,659693
2,4565,3957.0,660294
2,4570,3930.0,660796
2,4575,3893.0,661466
2,4580,3909.0,662063
2,4585,3924.0,662810
2,4590,3925.0,663410
2,4595,3912.0,664134
2,4600,3909.0,664809
2,4605,3932.0,665483
2,4610,3927.0,666172
2,4615,3920.0,666930
2,4620,3910.0,667762
2,4625,3918.0,668522
2,4630,3919.0,669118
2,4635,3922.0,669710
2,4640,3924.0,670279
2,4645,3932.0,670875
2,4650,3939.0,671471
2,4655,3942.0,672071
2,4660,3941.0,672679
2,4665,3941.0,673359
2,4670,3971.0,673959
2,4675,4007.0,674642
2,4680,3997.0,675395
2,4685,4009.0,675992
2,4690,3993.0,676672
2,4695,3981.0,677187
2,4700,3967.0,677863
2,4705,3968.0,678461
2,4710,3956.0,679018
2,4715,3949.0,679854
2,4720,3960.0,680444
2,4725,3952.0,681171
2,4730,3944.0,681920
2,4735,3933.0,682599
2,4740,3901.0,683123
2,4745,3903.0,683716
2,4750,3902.0,684361
2,4755,3871.0,685175
2,4760,3872.0,685773
2,4765,3871.0,686453
2,4770,3844.0,686967
2,4775,3844.0,687644
2,4780,3846.0,688293
2,4785,3829.0,689054
2,4790,3845.0,689645
2,4795,3859.0,690320
2,4800,3845.0,691080
2,4805,3844.0,691759
2,4810,3841.0,692398
2,4815,3864.0,693068
2,4820,3844.0,693822
2,4825,3854.0,694411
2,4830,3860.0,695004
2,4835,3871.0,695604
2,4840,3914.0,696193
2,4845,3913.0,696790
2,4850,3899.0,697439
2,4855,3914.0,698193
2,4860,3900.0,698869
2,4865,3893.0,699621
2,4870,3891.0,700377
2,4875,3893.0,700968
2,4880,3900.0,701637
2,4885,3915.0,702313
2,4890,3888.0,702904
2,4895,3893.0,703595
2,4900,3911.0,704277
2,4905,3903.0,704962
2,4910,3923.0,705555
2,4915,3895.0,706059
2,4920,3914.0,706658
2,4925,3907.0,707340
2,4930,3909.0,707944
2,4935,3900.0,708635
2,4940,3896.0,709399
2,4945,3897.0,710008
2,4950,3911.0,710694
2,4955,3927.0,711300
2,4960,3930.0,711938
2,4965,3931.0,712604
2,4970,3959.0,713252
2,4975,3958.0,713930
2,4980,3945.0,714608
2,4985,3945.0,715264
2,4990,3943.0,716018
2,4995,3945.0,716702
2,5000,3949.0,717315
2,5005,3948.0,718076
2,5010,3940.0,718754
2,5015,3940.0,719263
2,5020,3941.0,719863
2,5025,3949.0,720460
2,5030,3944.0,721143
2,5035,3952.0,721820
2,5040,3955.0,722497
2,5045,3943.0,723180
2,5050,3894.0,723840
2,5055,3870.0,724537
2,5060,3866.0,725270
2,5065,3874.0,725867
2,5070,3865.0,726543
2,5075,3866.0,727156
2,5080,3881.0,727756
2,5085,3882.0,728356
2,5090,3898.0,729018
2,5095,3885.0,729697
2,5100,3886.0,730467
2,5105,3865.0,731273
2,5110,3851.0,732055
2,5115,3870.0,732733
2,5120,3871.0,733326
2,5125,3870.0,734012
2,5130,3873.0,734696
2,5135,3874.0,735300
2,5140,3865.0,735925
2,5145,3870.0,736683
2,5150,3919.0,737291
2,5155,3929.0,738002
2,5160,3941.0,738756
2,5165,3933.0,739388
2,5170,3933.0,740071
2,5175,3932.0,740672
2,5180,3931.0,741348
2,5185,3914.0,742103
2,5190,3927.0,742702
2,5195,3935.0,743382
2,5200,3934.0,744026
2,5205,3964.0,744704
2,5210,3978.0,745388
2,5215,3985.0,746074
2,5220,3982.0,746682
2,5225,3984.0,747286
2,5230,3980.0,747880
2,5235,3980.0,748478
2,5240,3990.0,749083
2,5245,3996.0,749678
2,5250,3997.0,750375
2,5255,4001.0,750958
2,5260,4003.0,751560
2,5265,4010.0,752161
2,5270,3998.0,752911
2,5275,3992.0,753597
2,5280,3991.0,754187
2,5285,4000.0,754859
2,5290,3998.0,755457
2,5295,4009.0,756074
2,5300,3986.0,756698
2,5305,3987.0,757297
2,5310,3967.0,757820
2,5315,3967.0,758502
2,5320,3949.0,759259
2,5325,3948.0,759852
2,5330,3951.0,760462
2,5335,3951.0,761058
2,5340,3942.0,761741
2,5345,3942.0,762345
2,5350,3942.0,763022
2,5355,3901.0,763698
2,5360,3856.0,764285
2,5365,3821.0,764872
2,5370,3843.0,765466
2,5375,3850.0,766056
2,5380,3851.0,766653
2,5385,3800.0,767072
2,5390,3800.0,767671
2,5395,3793.0,768239
2,5400,3796.0,768758
2,5405,3765.0,769523
2,5410,3795.0,770123
2,5415,3761.0,770619
2,5420,3771.0,771251
2,5425,3769.0,771928
2,5430,3772.0,772536
2,5435,3770.0,773136
2,5440,3778.0,773737
2,5445,3779.0,774341
2,5450,3780.0,774953
2,5455,3828.0,775630
2,5460,3843.0,776147
2,5465,3874.0,776783
2,5470,3873.0,777379
2,5475,3870.0,777992
2,5480,3869.0,778587
2,5485,3928.0,779226
2,5490,3915.0,779901
2,5495,3923.0,780497
2,5500,3923.0,781097
2,5505,3935.0,781863
2,5510,3921.0,782622
2,5515,3935.0,783154
2,5520,3946.0,783752
2,5525,3941.0,784430
2,5530,3939.0,785178
2,5535,3928.0,785865
2,5540,3928.0,786470
2,5545,3928.0,787067
2,5550,3926.0,787666
2,5555,3926.0,788349
2,5560,3940.0,788901
2,5565,3945.0,789502
2,5570,3945.0,790095
2,5575,3948.0,790696
2,5580,3949.0,791296
2,5585,3946.0,791972
2,5590,3959.0,792652
2,5595,3958.0,793333
2,5600,3967.0,793954
2,5605,3974.0,794633
2,5610,3976.0,795399
2,5615,3997.0,796003
2,5620,3979.0,796812
2,5625,3987.0,797431
2,5630,3989.0,798023
2,5635,3988.0,798703
2,5640,3989.0,799303
2,5645,3952.0,799927
2,5650,3952.0,800530
2,5655,3952.0,801203
2,5660,3969.0,801799
2,5665,3959.0,802476
2,5670,3955.0,803152
2,5675,3945.0,803908
2,5680,3910.0,804748
2,5685,3914.0,805343
2,5690,3915.0,805949
2,5695,3917.0,806597
2,5700,3937.0,807185
2,5705,3949.0,807788
2,5710,3959.0,808384
2,5715,3953.0,808990
2,5720,3964.0,809671
2,5725,3950.0,810423
2,5730,3946.0,811011
2,5735,3952.0,811698
2,5740,3942.0,812377
2,5745,3978.0,812973
2,5750,3979.0,813655
2,5755,3975.0,814344
2,5760,3968.0,815186
2,5765,3977.0,815790
2,5770,3982.0,816387
2,5775,3983.0,817023
2,5780,4018.0,817630
2,5785,4018.0,818239
2,5790,4004.0,818953
2,5795,3985.0,819627
2,5800,3983.0,820312
2,5805,3968.0,820940
2,5810,3961.0,821583
2,5815,3958.0,822264
2,5820,3931.0,822881
2,5825,3944.0,823552
2,5830,3936.0,824179
2,5835,3931.0,824933
2,5840,3919.0,825704
2,5845,3910.0,826384
2,5850,3901.0,827140
2,5855,3907.0,827738
2,5860,3911.0,828346
2,5865,3885.0,828967
2,5870,3883.0,829646
2,5875,3892.0,830248
2,5880,3867.0,830767
2,5885,3867.0,831359
2,5890,3882.0,831958
2,5895,3900.0,832579
2,5900,3888.0,833261
2,5905,3899.0,833936
2,5910,3907.0,834537
2,5915,3918.0,835134
2,5920,3951.0,835737
2,5925,3949.0,836328
2,5930,3960.0,836928
2,5935,3967.0,837676
2,5940,3989.0,838279
2,5945,3999.0,838874
2,5950,4008.0,839473
2,5955,4009.0,840067
2,5960,4011.0,840672
2,5965,4034.0,841347
2,5970,4028.0,841920
2,5975,4012.0,842602
2,5980,4033.0,843279
2,5985,4012.0,844035
2,5990,4010.0,844649
2,5995,4009.0,845248
2,6000,4022.0,845841
2,6005,4027.0,846444
2,6010,4025.0,847043
2,6015,4017.0,847716
2,6020,4016.0,848367
2,6025,4016.0,848969
2,6030,3988.0,849477
2,6035,3993.0,850075
2,6040,3993.0,850668
2,6045,3991.0,851278
2,6050,3991.0,851880
2,6055,3991.0,852480
2,6060,3989.0,853138
2,6065,3992.0,853737
2,6070,3990.0,854424
2,6075,4004.0,855029
2,6080,4006.0,855642
2,6085,4027.0,856236
2,6090,3997.0,856749
2,6095,3999.0,857351
2,6100,3972.0,857862
2,6105,3935.0,858505
2,6110,3936.0,859182
2,6115,3944.0,859775
2,6120,3946.0,860381
2,6125,3933.0,861057
2,6130,3962.0,861656
2,6135,3954.0,862339
2,6140,3953.0,862995
2,6145,3941.0,863679
2,6150,3939.0,864435
2,6155,3939.0,865037
2,6160,3939.0,865644
2,6165,3938.0,866232
2,6170,3919.0,866763
2,6175,3909.0,867404
2,6180,3902.0,868090
2,6185,3885.0,868770
2,6190,3915.0,869380
2,6195,3915.0,869981
2,6200,3942.0,870581
2,6205,3975.0,871258
2,6210,3950.0,871787
2,6215,3949.0,872398
2,6220,3949.0,872994
2,6225,3964.0,873649
2,6230,3962.0,874305
2,6235,3971.0,874906
2,6240,3972.0,875500
2,6245,3978.0,876106
2,6250,3975.0,876796
2,6255,3961.0,877476
2,6260,3936.0,878238
2,6265,3937.0,878856
2,6270,3950.0,879527
2,6275,3939.0,880184
2,6280,3936.0,880762
2,6285,3938.0,881438
2,6290,3940.0,882035
2,6295,3939.0,882712
2,6300,3940.0,883302
2,6305,3914.0,883893
2,6310,3934.0,884489
2,6315,3935.0,885099
2,6320,3932.0,885775
2,6325,3933.0,886369
2,6330,3922.0,887054
2,6335,3922.0,887657
2,6340,3909.0,888343
2,6345,3915.0,888939
2,6350,3920.0,889613
2,6355,3934.0,890207
2,6360,3954.0,890887
2,6365,3937.0,891653
2,6370,3952.0,892249
2,6375,3946.0,893088
2,6380,3945.0,893767
2,6385,3950.0,894443
2,6390,3950.0,895049
2,6395,3949.0,895651
2,6400,3948.0,896250
2,6405,3966.0,896817
2,6410,3962.0,897493
2,6415,3960.0,898175
2,6420,3961.0,898778
2,6425,3958.0,899492
2,6430,3970.0,900187
2,6435,3926.0,900858
2,6440,3938.0,901470
2,6445,3939.0,902067
2,6450,3936.0,902663
2,6455,3927.0,903341
2,6460,3934.0,903948
2,6465,3950.0,904548
2,6470,3951.0,905147
2,6475,3980.0,905749
2,6480,3992.0,906368
2,6485,4000.0,907122
2,6490,3988.0,907965
2,6495,3990.0,908569
2,6500,3981.0,909142
2,6505,3981.0,909768
2,6510,3989.0,910461
2,6515,3986.0,911152
2,6520,3988.0,911750
2,6525,3991.0,912346
2,6530,3992.0,912952
2,6535,4019.0,913629
2,6540,4011.0,914328
2,6545,4012.0,914950
2,6550,4012.0,915635
2,6555,4012.0,916320
2,6560,4013.0,916926
2,6565,4000.0,917691
2,6570,3997.0,918431
2,6575,3981.0,919113
2,6580,3983.0,919712
2,6585,3983.0,920322
2,6590,3961.0,920838
2,6595,3959.0,921440
2,6600,3922.0,921892
2,6605,3925.0,922574
2,6610,3925.0,923214
2,6615,3920.0,923902
2,6620,3917.0,924509
2,6625,3917.0,925112
2,6630,3911.0,925730
2,6635,3919.0,926439
2,6640,3925.0,927091
2,6645,3924.0,927699
2,6650,3927.0,928327
2,6655,3936.0,928932
2,6660,3935.0,929555
2,6665,3949.0,930233
2,6670,3950.0,930915
2,6675,3964.0,931601
2,6680,3949.0,932285
2,6685,3947.0,932963
2,6690,3966.0,933646
2,6695,3965.0,934261
2,6700,3983.0,934780
2,6705,3991.0,935486
2,6710,3991.0,936117
2,6715,3986.0,936734
2,6720,3989.0,937349
2,6725,3989.0,937960
2,6730,3987.0,938637
2,6735,3996.0,939240
2,6740,3998.0,939842
2,6745,3986.0,940505
2,6750,3987.0,941120
2,6755,3986.0,941755
2,6760,3982.0,942438
2,6765,3979.0,943062
2,6770,3964.0,943743
2,6775,3964.0,944348
2,6780,3979.0,944970
2,6785,3983.0,945591
2,6790,3996.0,946278
2,6795,3999.0,946865
2,6800,4026.0,947562
2,6805,4027.0,948172
2,6810,4020.0,948829
2,6815,4025.0,949586
2,6820,4005.0,950351
2,6825,4004.0,950958
2,6830,3992.0,951497
2,6835,3984.0,952155
2,6840,3984.0,952797
2,6845,3980.0,953348
2,6850,3980.0,953959
2,6855,3981.0,954575
2,6860,3984.0,955180
2,6865,3976.0,955849
2,6870,3991.0,956457
2,6875,3984.0,957142
2,6880,3983.0,957741
2,6885,3968.0,958323
2,6890,3961.0,959026
2,6895,3960.0,959627
2,6900,3958.0,960248
2,6905,3951.0,960923
2,6910,3960.0,961532
2,6915,3962.0,962114
2,6920,3965.0,962825
2,6925,3964.0,963426
2,6930,3970.0,964114
2,6935,3970.0,964795
2,6940,3970.0,965392
2,6945,3975.0,966023
2,6950,3965.0,966684
2,6955,3956.0,967276
2,6960,3956.0,967920
2,6965,3955.0,968609
2,6970,3956.0,969222
2,6975,3955.0,969817
2,6980,3956.0,970428
2,6985,3955.0,971008
2,6990,3964.0,971610
2,6995,3965.0,972217
2,7000,3969.0,972816
2,7005,3973.0,973438
2,7010,3974.0,974054
2,7015,3982.0,974669
2,7020,3998.0,975275
2,7025,3994.0,975871
2,7030,4006.0,976483
2,7035,4003.0,977174
2,7040,4004.0,977805
2,7045,4013.0,978567
2,7050,3996.0,979097
2,7055,4005.0,979710
2,7060,4006.0,980316
2,7065,4018.0,981012
2,7070,4019.0,981653
2,7075,4029.0,982301
2,7080,3998.0,982827
2,7085,4010.0,983507
2,7090,4009.0,984109
2,7095,4000.0,984682
2,7100,3986.0,985368
2,7105,3988.0,985977
2,7110,3973.0,986579
2,7115,3968.0,987197
2,7120,3964.0,987963
2,7125,3969.0,988569
2,7130,3969.0,989184
2,7135,3979.0,989794
2,7140,3977.0,990390
2,7145,3964.0,991073
2,7150,3972.0,991814
2,7155,3968.0,992419
2,7160,3969.0,993029
2,7165,3970.0,993645
2,7170,3967.0,994336
2,7175,3958.0,995044
2,7180,3987.0,995703
2,7185,3976.0,996272
2,7190,3977.0,996868
2,7195,3985.0,997540
2,7200,3997.0,998143
2,7205,3998.0,998749
2,7210,4011.0,999369
2,7215,4016.0,999990
2,7220,4019.0,1000624
2,7225,4016.0,1001222
2,7230,4008.0,1001908
2,7235,3985.0,1002431
2,7240,3987.0,1003051
2,7245,3998.0,1003734
2,7250,4014.0,1004351
2,7255,4003.0,1004986
2,7260,3989.0,1005674
2,7265,3986.0,1006276
2,7270,3983.0,1006894
2,7275,3974.0,1007456
2,7280,3976.0,1008075
2,7285,3980.0,1008762
2,7290,3965.0,1009446
2,7295,3966.0,1010056
2,7300,3968.0,1010668
2,7305,3953.0,1011346
2,7310,3954.0,1011957
2,7315,3927.0,1012718
2,7320,3909.0,1013416
2,7325,3897.0,1014098
2,7330,3907.0,1014703
2,7335,3931.0,1015305
2,7340,3896.0,1015867
2,7345,3892.0,1016514
2,7350,3877.0,1017157
2,7355,3892.0,1017748
2,7360,3906.0,1018350
2,7365,3908.0,1018960
2,7370,3912.0,1019573
2,7375,3930.0,1020173
2,7380,3921.0,1020864
2,7385,3928.0,1021489
2,7390,3943.0,1022091
2,7395,3925.0,1022785
2,7400,3917.0,1023458
2,7405,3932.0,1024061
2,7410,3933.0,1024660
2,7415,3952.0,1025344
2,7420,3971.0,1025951
2,7425,3986.0,1026557
2,7430,3986.0,1027158
2,7435,3969.0,1027998
2,7440,3970.0,1028510
2,7445,3973.0,1029118
2,7450,3990.0,1029730
2,7455,3987.0,1030334
2,7460,3985.0,1030942
2,7465,3970.0,1031618
2,7470,3965.0,1032257
2,7475,3964.0,1032869
2,7480,3972.0,1033466
2,7485,3975.0,1034160
2,7490,3974.0,1034758
2,7495,3984.0,1035373
2,7500,3970.0,1035987
2,7505,3969.0,1036598
2,7510,3953.0,1037362
2,7515,3959.0,1037970
2,7520,3960.0,1038584
2,7525,3959.0,1039183
2,7530,3958.0,1039795
2,7535,3934.0,1040487
2,7540,3965.0,1041176
2,7545,3971.0,1041784
2,7550,3942.0,1042599
2,7555,3941.0,1043225
2,7560,3930.0,1043838
2,7565,3946.0,1044512
2,7570,3951.0,1045134
2,7575,3952.0,1045738
2,7580,3952.0,1046326
2,7585,3952.0,1046931
2,7590,3951.0,1047553
2,7595,3955.0,1048269
2,7600,3974.0,1048980
2,7605,3972.0,1049680
2,7610,3982.0,1050289
2,7615,3983.0,1050895
2,7620,3960.0,1051570
2,7625,3962.0,1052180
2,7630,3955.0,1052762
2,7635,3974.0,1053417
2,7640,3977.0,1054022
2,7645,3977.0,1054632
2,7650,4007.0,1055245
2,7655,3997.0,1056002
2,7660,3997.0,1056629
2,7665,3993.0,1057269
2,7670,3983.0,1057831
2,7675,3983.0,1058437
2,7680,3983.0,1059045
2,7685,3974.0,1059731
2,7690,3975.0,1060412
2,7695,3978.0,1061021
2,7700,3981.0,1061640
2,7705,3984.0,1062242
2,7710,3990.0,1062841
2,7715,3986.0,1063510
2,7720,4009.0,1064130
2,7725,4006.0,1064809
2,7730,4014.0,1065411
2,7735,4027.0,1066120
2,7740,4012.0,1066808
2,7745,3995.0,1067572
2,7750,3966.0,1068378
2,7755,3980.0,1068976
2,7760,3979.0,1069547
2,7765,3975.0,1070305
2,7770,3975.0,1070991
2,7775,3975.0,1071595
2,7780,3962.0,1072371
2,7785,3971.0,1072980
2,7790,3971.0,1073598
2,7795,3970.0,1074203
2,7800,3965.0,1074861
2,7805,3936.0,1075376
2,7810,3931.0,1075988
2,7815,3936.0,1076597
2,7820,3919.0,1077163
2,7825,3921.0,1077771
2,7830,3912.0,1078404
2,7835,3911.0,1079100
2,7840,3903.0,1079705
2,7845,3917.0,1080359
2,7850,3945.0,1080955
2,7855,3944.0,1081563
2,7860,3934.0,1082234
2,7865,3940.0,1082857
2,7870,3936.0,1083446
2,7875,3922.0,1084138
2,7880,3928.0,1084718
2,7885,3929.0,1085319
2,7890,3889.0,1085827
2,7895,3862.0,1086356
2,7900,3855.0,1086986
2,7905,3882.0,1087606
2,7910,3853.0,1088120
2,7915,3852.0,1088739
2,7920,3867.0,1089436
2,7925,3858.0,1090195
2,7930,3848.0,1090896
2,7935,3842.0,1091619
2,7940,3862.0,1092239
2,7945,3865.0,1092845
2,7950,3866.0,1093459
2,7955,3865.0,1094060
2,7960,3889.0,1094653
2,7965,3891.0,1095258
2,7970,3904.0,1095933
2,7975,3914.0,1096631
2,7980,3883.0,1097229
2,7985,3882.0,1097836
2,7990,3915.0,1098430
2,7995,3938.0,1099037
2,8000,3947.0,1099717
2,8005,3920.0,1100229
2,8010,3946.0,1100866
2,8015,3946.0,1101474
2,8020,3944.0,1102155
2,8025,3935.0,1102834
2,8030,3944.0,1103522
2,8035,3957.0,1104145
2,8040,3960.0,1104779
2,8045,3960.0,1105396
2,8050,3960.0,1106004
2,8055,3962.0,1106606
2,8060,3962.0,1107213
2,8065,3961.0,1107814
2,8070,3963.0,1108411
2,8075,3966.0,1109066
2,8080,4005.0,1109671
2,8085,3983.0,1110205
2,8090,3987.0,1110972
2,8095,3993.0,1111569
2,8100,3985.0,1112205
2,8105,4012.0,1112817
2,8110,4020.0,1113448
2,8115,4021.0,1114060
2,8120,4021.0,1114654
2,8125,4039.0,1115253
2,8130,4048.0,1115861
2,8135,4050.0,1116465
2,8140,4004.0,1116928
2,8145,3970.0,1117520
2,8150,3939.0,1118194
2,8155,3939.0,1118794
2,8160,3938.0,1119394
2,8165,3924.0,1119978
2,8170,3919.0,1120672
2,8175,3881.0,1121395
2,8180,3881.0,1122004
2,8185,3904.0,1122607
2,8190,3906.0,1123227
2,8195,3903.0,1123828
2,8200,3904.0,1124412
2,8205,3897.0,1125089
2,8210,3896.0,1125697
2,8215,3894.0,1126306
2,8220,3897.0,1126912
2,8225,3898.0,1127522
2,8230,3885.0,1128105
2,8235,3884.0,1128703
2,8240,3925.0,1129379
2,8245,3939.0,1129940
2,8250,3956.0,1130629
2,8255,3956.0,1131233
2,8260,3957.0,1131843
2,8265,3962.0,1132416
2,8270,3968.0,1133036
2,8275,4007.0,1133644
2,8280,4006.0,1134331
2,8285,4003.0,1134938
2,8290,4002.0,1135642
2,8295,3994.0,1136380
2,8300,4001.0,1137004
2,8305,4005.0,1137681
2,8310,4005.0,1138316
2,8315,4007.0,1138920
2,8320,3981.0,1139458
2,8325,3981.0,1140058
2,8330,3974.0,1140603
2,8335,3961.0,1141287
2,8340,3945.0,1141832
2,8345,3962.0,1142453
2,8350,3948.0,1143202
2,8355,3946.0,1143814
2,8360,3943.0,1144495
2,8365,3950.0,1145182
2,8370,3933.0,1145866
2,8375,3919.0,1146554
2,8380,3920.0,1147160
2,8385,3916.0,1147745
2,8390,3911.0,1148428
2,8395,3921.0,1149036
2,8400,3919.0,1149814
2,8405,3924.0,1150418
2,8410,3850.0,1150880
2,8415,3844.0,1151506
2,8420,3871.0,1152112
2,8425,3835.0,1152724
2,8430,3852.0,1153405
2,8435,3867.0,1154015
2,8440,3888.0,1154633
2,8445,3889.0,1155248
2,8450,3917.0,1155865
2,8455,3917.0,1156548
2,8460,3914.0,1157230
2,8465,3915.0,1157830
2,8470,3924.0,1158596
2,8475,3937.0,1159206
2,8480,3934.0,1159933
2,8485,3940.0,1160554
2,8490,3939.0,1161238
2,8495,3940.0,1161848
2,8500,3941.0,1162494
2,8505,3940.0,1163104
2,8510,4014.0,1163702
2,8515,4016.0,1164313
2,8520,4015.0,1164912
2,8525,4027.0,1165442
2,8530,4031.0,1166055
2,8535,3999.0,1166658
2,8540,3985.0,1167357
2,8545,3983.0,1167957
2,8550,3982.0,1168577
2,8555,3984.0,1169188
2,8560,3979.0,1169768
2,8565,3978.0,1170461
2,8570,3985.0,1171068
2,8575,3986.0,1171680
2,8580,3987.0,1172371
2,8585,3983.0,1173056
2,8590,3992.0,1173663
2,8595,3991.0,1174273
2,8600,3994.0,1174884
2,8605,3978.0,1175586
2,8610,3979.0,1176201
2,8615,3937.0,1176669
2,8620,3935.0,1177432
2,8625,3959.0,1178035
2,8630,3957.0,1178738
2,8635,3989.0,1179340
2,8640,4003.0,1179947
2,8645,3982.0,1180680
2,8650,3983.0,1181306
2,8655,3983.0,1181912
2,8660,3990.0,1182598
2,8665,3989.0,1183285
2,8670,3982.0,1183872
2,8675,3954.0,1184633
2,8680,3943.0,1185327
2,8685,3947.0,1186010
2,8690,3945.0,1186699
2,8695,3931.0,1187450
2,8700,3919.0,1188064
2,8705,3922.0,1188745
2,8710,3921.0,1189348
2,8715,3950.0,1190036
2,8720,3931.0,1190704
2,8725,3925.0,1191400
2,8730,3901.0,1191984
2,8735,3876.0,1192617
2,8740,3861.0,1193303
2,8745,3871.0,1193991
2,8750,3840.0,1194553
2,8755,3817.0,1195089
2,8760,3821.0,1195684
2,8765,3816.0,1196338
2,8770,3790.0,1196971
2,8775,3803.0,1197657
2,8780,3816.0,1198268
2,8785,3816.0,1198879
2,8790,3810.0,1199526
2,8795,3819.0,1200216
2,8800,3814.0,1200826
2,8805,3819.0,1201504
2,8810,3820.0,1202108
2,8815,3836.0,1202713
2,8820,3854.0,1203311
2,8825,3860.0,1203919
2,8830,3852.0,1204543
2,8835,3876.0,1205147
2,8840,3887.0,1205738
2,8845,3901.0,1206345
2,8850,3931.0,1206971
2,8855,3951.0,1207601
2,8860,3951.0,1208219
2,8865,3953.0,1208899
2,8870,3977.0,1209582
2,8875,3992.0,1210196
2,8880,3964.0,1210976
2,8885,3963.0,1211606
2,8890,3948.0,1212246
2,8895,3952.0,1212855
2,8900,3951.0,1213617
2,8905,3952.0,1214299
2,8910,3951.0,1214918
2,8915,3945.0,1215595
2,8920,3942.0,1216212
2,8925,3930.0,1216814
2,8930,3964.0,1217424
2,8935,3965.0,1218046
2,8940,3967.0,1218658
2,8945,3968.0,1219266
2,8950,3965.0,1219880
2,8955,3968.0,1220510
2,8960,3964.0,1221139
2,8965,3955.0,1221883
2,8970,3964.0,1222489
2,8975,3959.0,1223174
2,8980,3985.0,1223775
2,8985,3984.0,1224404
2,8990,4005.0,1225048
2,8995,3993.0,1225792
2,9000,4005.0,1226398
2,9005,4012.0,1227013
2,9010,4006.0,1227769
2,9015,3989.0,1228533
2,9020,3996.0,1229164
2,9025,4008.0,1229780
2,9030,4001.0,1230371
2,9035,3994.0,1231072
2,9040,3974.0,1231617
2,9045,3972.0,1232266
2,9050,3958.0,1232880
2,9055,3955.0,1233490
2,9060,3953.0,1234170
2,9065,3969.0,1234774
2,9070,3969.0,1235375
2,9075,3958.0,1235966
2,9080,3955.0,1236569
2,9085,3941.0,1237250
2,9090,3943.0,1237854
2,9095,3955.0,1238464
2,9100,3952.0,1239137
2,9105,3951.0,1239821
2,9110,3957.0,1240431
2,9115,3975.0,1241035
2,9120,3966.0,1241663
2,9125,3962.0,1242351
2,9130,3951.0,1242904
2,9135,3958.0,1243517
2,9140,3980.0,1244121
2,9145,3979.0,1244724
2,9150,3993.0,1245404
2,9155,3994.0,1245990
2,9160,4000.0,1246601
2,9165,3999.0,1247269
2,9170,4000.0,1247878
2,9175,3997.0,1248433
2,9180,3988.0,1249116
2,9185,4003.0,1249791
2,9190,4002.0,1250397
2,9195,4004.0,1250998
2,9200,4014.0,1251617
2,9205,4016.0,1252256
2,9210,4013.0,1252857
2,9215,3991.0,1253492
2,9220,3985.0,1254178
2,9225,3988.0,1254833
2,9230,3986.0,1255503
2,9235,3964.0,1256032
2,9240,3960.0,1256635
2,9245,3962.0,1257275
2,9250,3956.0,1257858
2,9255,3948.0,1258468
2,9260,3948.0,1259067
2,9265,3948.0,1259665
2,9270,3947.0,1260296
2,9275,3965.0,1260911
2,9280,3979.0,1261512
2,9285,3949.0,1262021
2,9290,3932.0,1262646
2,9295,3927.0,1263332
2,9300,3912.0,1264015
2,9305,3903.0,1264697
2,9310,3906.0,1265310
2,9315,3928.0,1265904
2,9320,3929.0,1266589
2,9325,3893.0,1267206
2,9330,3878.0,1267799
2,9335,3899.0,1268396
2,9340,3890.0,1269043
2,9345,3888.0,1269784
2,9350,3862.0,1270412
2,9355,3872.0,1271020
2,9360,3872.0,1271625
2,9365,3865.0,1272308
2,9370,3866.0,1272907
2,9375,3858.0,1273565
2,9380,3854.0,1274178
2,9385,3878.0,1274777
2,9390,3868.0,1275544
2,9395,3873.0,1276152
2,9400,3880.0,1276761
2,9405,3873.0,1277344
2,9410,3874.0,1277947
2,9415,3862.0,1278524
2,9420,3876.0,1279128
2,9425,3913.0,1279747
2,9430,3920.0,1280296
2,9435,3903.0,1280847
2,9440,3905.0,1281606
2,9445,3904.0,1282292
2,9450,3932.0,1282972
2,9455,3922.0,1283659
2,9460,3921.0,1284270
2,9465,3928.0,1284887
2,9470,3914.0,1285579
2,9475,3901.0,1286197
2,9480,3890.0,1286887
2,9485,3872.0,1287420
2,9490,3897.0,1288110
2,9495,3893.0,1288713
2,9500,3894.0,1289400
2,9505,3909.0,1290000
2,9510,3909.0,1290613
2,9515,3926.0,1291215
2,9520,3925.0,1291825
2,9525,3916.0,1292586
2,9530,3895.0,1293127
2,9535,3905.0,1293816
2,9540,3916.0,1294416
2,9545,3888.0,1294930
2,9550,3882.0,1295500
2,9555,3890.0,1296165
2,9560,3889.0,1296768
2,9565,3888.0,1297368
2,9570,3858.0,1297966
2,9575,3864.0,1298531
2,9580,3876.0,1299182
2,9585,3902.0,1299794
2,9590,3890.0,1300556
2,9595,3894.0,1301164
2,9600,3893.0,1301785
2,9605,3893.0,1302394
2,9610,3893.0,1302999
2,9615,3894.0,1303613
2,9620,3893.0,1304216
2,9625,3902.0,1304820
2,9630,3947.0,1305411
2,9635,3952.0,1306057
2,9640,3949.0,1306674
2,9645,3979.0,1307351
2,9650,3993.0,1307951
2,9655,3994.0,1308559
2,9660,3990.0,1309175
2,9665,3991.0,1309781
2,9670,4034.0,1310388
2,9675,4049.0,1310986
2,9680,4051.0,1311602
2,9685,4048.0,1312285
2,9690,4062.0,1312895
2,9695,4048.0,1313579
2,9700,4054.0,1314198
2,9705,4054.0,1314817
2,9710,4049.0,1315414
2,9715,4032.0,1316173
2,9720,4002.0,1316937
2,9725,3987.0,1317635
2,9730,3990.0,1318242
2,9735,3990.0,1318927
2,9740,3976.0,1319476
2,9745,3977.0,1320103
2,9750,3960.0,1320689
2,9755,3937.0,1321453
2,9760,3929.0,1322050
2,9765,3926.0,1322710
2,9770,3909.0,1323300
2,9775,3908.0,1323980
2,9780,3894.0,1324669
2,9785,3897.0,1325322
2,9790,3889.0,1326008
2,9795,3870.0,1326660
2,9800,3863.0,1327348
2,9805,3861.0,1328033
2,9810,3865.0,1328637
2,9815,3872.0,1329320
2,9820,3893.0,1329999
2,9825,3905.0,1330642
2,9830,3905.0,1331248
2,9835,3907.0,1331864
2,9840,3920.0,1332633
2,9845,3892.0,1333148
2,9850,3909.0,1333748
2,9855,3918.0,1334437
2,9860,3931.0,1335038
2,9865,3924.0,1335725
2,9870,3942.0,1336327
2,9875,3944.0,1336931
2,9880,3958.0,1337538
2,9885,3939.0,1338088
2,9890,3947.0,1338772
2,9895,3978.0,1339446
2,9900,3985.0,1340139
2,9905,3959.0,1340855
2,9910,3948.0,1341514
2,9915,3951.0,1342209
2,9920,3962.0,1342813
2,9925,3937.0,1343525
2,9930,3928.0,1344192
2,9935,3927.0,1344789
2,9940,3925.0,1345473
2,9945,3952.0,1346070
2,9950,3951.0,1346751
2,9955,3950.0,1347439
2,9960,3950.0,1348043
2,9965,3960.0,1348655
2,9970,3920.0,1349496
2,9975,3913.0,1350097
2,9980,3913.0,1350700
2,9985,3917.0,1351379
2,9990,3918.0,1351979
2,9995,3920.0,1352589
2,10000,3919.0,1353195
2,10005,3939.0,1353806
2,10010,3949.0,1354412
2,10015,3956.0,1355011
2,10020,3956.0,1355615
2,10025,3983.0,1356219
2,10030,3963.0,1356741
2,10035,3965.0,1357351
2,10040,3969.0,1357960
2,10045,3956.0,1358614
2,10050,3933.0,1359164
2,10055,3945.0,1359776
2,10060,3929.0,1360453
2,10065,3927.0,1361045
2,10070,3958.0,1361728
2,10075,3949.0,1362300
2,10080,3949.0,1362911
2,10085,3955.0,1363597
2,10090,3943.0,1364291
2,10095,3941.0,1364901
2,10100,3926.0,1365452
2,10105,3934.0,1366058
2,10110,3921.0,1366736
2,10115,3915.0,1367413
2,10120,3903.0,1368099
2,10125,3902.0,1368709
2,10130,3931.0,1369312
2,10135,3926.0,1369927
2,10140,3927.0,1370532
2,10145,3924.0,1371123
2,10150,3947.0,1371785
2,10155,3945.0,1372547
2,10160,3961.0,1373159
2,10165,3953.0,1373892
2,10170,3962.0,1374505
2,10175,3977.0,1375105
2,10180,3976.0,1375794
2,10185,3984.0,1376393
2,10190,3976.0,1377066
2,10195,3969.0,1377747
2,10200,3987.0,1378366
2,10205,3987.0,1378980
2,10210,3995.0,1379666
2,10215,3999.0,1380337
2,10220,4011.0,1380999
2,10225,4008.0,1381686
2,10230,4006.0,1382412
2,10235,4001.0,1383070
2,10240,4002.0,1383679
2,10245,4011.0,1384353
2,10250,3997.0,1385038
2,10255,4003.0,1385637
2,10260,4003.0,1386326
2,10265,4013.0,1386958
2,10270,3989.0,1387490
2,10275,3971.0,1388245
2,10280,3957.0,1388922
2,10285,3934.0,1389521
2,10290,3946.0,1390104
2,10295,3922.0,1390793
2,10300,3921.0,1391396
2,10305,3920.0,1392017
2,10310,3927.0,1392618
2,10315,3899.0,1393135
2,10320,3898.0,1393749
2,10325,3903.0,1394350
2,10330,3889.0,1394902
2,10335,3869.0,1395411
2,10340,3865.0,1396060
2,10345,3845.0,1396576
2,10350,3830.0,1397087
2,10355,3815.0,1397768
2,10360,3816.0,1398372
2,10365,3815.0,1398977
2,10370,3827.0,1399739
2,10375,3845.0,1400350
2,10380,3855.0,1401036
2,10385,3861.0,1401578
2,10390,3869.0,1402191
2,10395,3901.0,1402877
2,10400,3865.0,1403548
2,10405,3847.0,1404186
2,10410,3823.0,1404870
2,10415,3853.0,1405484
2,10420,3839.0,1406102
2,10425,3831.0,1406786
2,10430,3848.0,1407395
2,10435,3877.0,1408006
2,10440,3881.0,1408614
2,10445,3910.0,1409219
2,10450,3910.0,1409749
2,10455,3925.0,1410348
2,10460,3924.0,1410962
2,10465,3912.0,1411648
2,10470,3920.0,1412348
2,10475,3920.0,1412952
2,10480,3916.0,1413640
2,10485,3932.0,1414328
2,10490,3932.0,1414935
2,10495,3913.0,1415601
2,10500,3946.0,1416289
2,10505,3963.0,1416966
2,10510,3984.0,1417658
2,10515,3970.0,1418338
2,10520,3982.0,1419025
2,10525,3989.0,1419625
2,10530,3975.0,1420308
2,10535,3966.0,1421005
2,10540,3966.0,1421617
2,10545,3964.0,1422306
2,10550,3994.0,1422912
2,10555,3979.0,1423644
2,10560,3979.0,1424255
2,10565,3993.0,1424872
2,10570,3997.0,1425479
2,10575,3988.0,1426094
2,10580,3993.0,1426696
2,10585,3981.0,1427304
2,10590,3955.0,1427928
2,10595,3961.0,1428690
2,10600,3961.0,1429299
2,10605,3955.0,1429975
2,10610,3958.0,1430582
2,10615,3957.0,1431274
2,10620,3947.0,1431956
2,10625,3929.0,1432639
2,10630,3942.0,1433248
2,10635,3952.0,1433846
2,10640,3952.0,1434451
2,10645,3953.0,1435056
2,10650,3923.0,1435586
2,10655,3923.0,1436266
2,10660,3903.0,1436952
2,10665,3902.0,1437561
2,10670,3902.0,1438168
2,10675,3912.0,1438774
2,10680,3912.0,1439382
2,10685,3919.0,1439997
2,10690,3942.0,1440674
2,10695,3930.0,1441253
2,10700,3933.0,1441856
2,10705,3942.0,1442459
2,10710,3941.0,1443061
2,10715,3956.0,1443662
2,10720,3962.0,1444417
2,10725,3980.0,1445017
2,10730,3975.0,1445635
2,10735,3971.0,1446396
2,10740,3957.0,1447070
2,10745,3957.0,1447676
2,10750,3986.0,1448283
2,10755,3999.0,1448905
2,10760,4019.0,1449522
2,10765,4007.0,1450149
2,10770,3979.0,1450745
2,10775,3977.0,1451354
2,10780,3964.0,1451961
2,10785,3970.0,1452570
2,10790,3970.0,1453260
2,10795,3980.0,1453862
2,10800,3966.0,1454551
2,10805,3966.0,1455149
2,10810,3952.0,1455831
2,10815,3951.0,1456434
2,10820,3948.0,1457128
2,10825,3927.0,1457890
2,10830,3931.0,1458496
2,10835,3935.0,1459104
2,10840,3949.0,1459713
2,10845,3949.0,1460358
2,10850,3950.0,1460967
2,10855,3942.0,1461720
2,10860,3930.0,1462407
2,10865,3941.0,1463093
2,10870,3968.0,1463705
2,10875,3969.0,1464316
2,10880,3977.0,1465001
2,10885,3960.0,1465560
2,10890,3936.0,1466119
2,10895,3933.0,1466875
2,10900,3917.0,1467504
2,10905,3916.0,1468113
2,10910,3916.0,1468807
2,10915,3916.0,1469471
2,10920,3917.0,1470158
2,10925,3936.0,1470776
2,10930,3937.0,1471388
2,10935,3925.0,1472075
2,10940,3922.0,1472765
2,10945,3909.0,1473458
2,10950,3886.0,1474216
2,10955,3894.0,1474907
2,10960,3907.0,1475536
2,10965,3909.0,1476148
2,10970,3904.0,1476828
2,10975,3905.0,1477440
2,10980,3913.0,1478048
2,10985,3928.0,1478734
2,10990,3942.0,1479410
2,10995,3946.0,1480096
2,11000,3968.0,1480780
2,11005,3963.0,1481451
2,11010,3973.0,1482049
2,11015,3971.0,1482731
2,11020,3947.0,1483357
2,11025,3950.0,1483955
2,11030,3951.0,1484558
2,11035,3956.0,1485244
2,11040,3959.0,1485852
2,11045,3966.0,1486616
2,11050,3975.0,1487209
2,11055,3974.0,1487827
2,11060,3970.0,1488437
2,11065,3954.0,1489196
2,11070,3954.0,1489877
2,11075,3954.0,1490496
2,11080,3955.0,1491112
2,11085,3956.0,1491722
2,11090,3967.0,1492333
2,11095,3982.0,1492995
2,11100,3991.0,1493612
2,11105,3997.0,1494219
2,11110,4000.0,1494833
2,11115,4001.0,1495431
2,11120,4032.0,1496074
2,11125,4031.0,1496674
2,11130,4022.0,1497276
2,11135,4027.0,1497959
2,11140,4024.0,1498639
2,11145,3999.0,1499153
2,11150,4007.0,1499829
