% time spent exploring,episodes,mean 100 episode reward,steps
99,5,675.0,327
99,10,511.1,1084
99,15,450.0,1721
99,20,489.5,2445
98,25,562.5,3371
98,30,558.6,4048
98,35,538.2,4932
98,40,502.6,5256
98,45,477.3,5743
97,50,475.5,6541
97,55,459.3,7290
97,60,484.7,8021
97,65,476.6,8534
96,70,468.1,9207
96,75,451.4,9720
96,80,450.6,10128
96,85,450.0,10860
96,90,443.8,11166
96,95,457.4,11973
95,100,469.7,12946
95,105,455.0,13322
95,110,481.0,14059
95,115,475.0,14453
95,120,485.0,15203
94,125,462.0,15735
94,130,475.0,16614
94,135,476.0,17016
94,140,497.0,17713
94,145,511.0,18293
93,150,521.0,18965
93,155,529.0,19492
93,160,520.0,20350
93,165,532.0,20916
92,170,538.0,21671
92,175,557.0,22427
92,180,561.0,23040
92,185,559.0,23581
92,190,574.0,24380
91,195,565.0,24904
91,200,562.0,25589
91,205,574.0,26233
91,210,576.0,27111
90,215,589.0,27763
90,220,584.0,28476
90,225,595.0,29092
90,230,588.0,29676
90,235,601.0,30338
89,240,598.0,31002
89,245,586.0,31407
89,250,595.0,32024
89,255,604.0,32703
89,260,613.0,33334
88,265,607.0,33774
88,270,612.0,34286
88,275,625.0,34982
88,280,638.0,35781
88,285,640.0,36509
87,290,647.0,37408
87,295,667.0,38226
87,300,675.0,38974
87,305,681.0,39563
86,310,660.0,40513
86,315,669.0,41064
86,320,654.0,41742
86,325,662.0,42333
85,330,658.0,43007
85,335,658.0,43820
85,340,661.0,44527
85,345,680.0,45140
84,350,680.0,46024
84,355,686.0,46807
84,360,674.0,47355
84,365,700.0,48268
84,370,713.0,48944
83,375,718.0,49550
83,380,707.0,50133
83,385,720.0,50826
83,390,705.0,51384
83,395,692.0,51913
82,400,687.0,52740
82,405,678.0,53137
82,410,685.0,53683
82,415,708.0,54484
81,420,731.0,55192
81,425,732.0,55818
81,430,728.0,56225
81,435,730.0,56900
81,440,745.0,57677
80,445,756.0,58379
80,450,748.0,58801
80,455,751.0,59346
80,460,767.0,59897
80,465,751.0,60412
80,470,738.0,60924
79,475,733.0,61655
79,480,742.0,62372
79,485,750.0,63284
79,490,758.0,63966
78,495,775.0,64777
78,500,780.0,65560
78,505,801.0,66273
78,510,826.0,67204
77,515,813.0,67983
77,520,810.0,68647
77,525,804.0,69128
77,530,837.0,69916
76,535,847.0,70503
76,540,839.0,71042
76,545,839.0,71767
76,550,856.0,72381
76,555,870.0,73077
75,560,885.0,73908
75,565,896.0,74584
75,570,914.0,75231
75,575,908.0,75750
74,580,923.0,76556
74,585,939.0,77408
74,590,949.0,78059
74,595,947.0,78899
73,600,958.0,79628
73,605,975.0,80313
73,610,972.0,81078
73,615,982.0,81791
73,620,991.0,82418
72,625,1001.0,83136
72,630,987.0,83724
72,635,993.0,84328
72,640,1003.0,85196
71,645,1007.0,85810
71,650,1000.0,86452
71,655,980.0,86798
71,660,993.0,87640
71,665,986.0,88349
70,670,974.0,88923
70,675,982.0,89615
70,680,960.0,89927
70,685,954.0,90437
70,690,962.0,90888
70,695,969.0,91571
69,700,953.0,92181
69,705,940.0,93003
69,710,927.0,93403
69,715,911.0,93876
69,720,903.0,94562
68,725,916.0,95508
68,730,911.0,96172
68,735,924.0,97017
68,740,936.0,97787
67,745,936.0,98513
67,750,962.0,99246
67,755,995.0,99946
67,760,980.0,100769
66,765,1005.0,101445
66,770,1021.0,102001
66,775,1020.0,102696
66,780,1039.0,103273
66,785,1030.0,103928
65,790,1023.0,104471
65,795,1015.0,105185
65,800,1030.0,105686
65,805,1050.0,106622
64,810,1055.0,107371
64,815,1056.0,107867
64,820,1064.0,108487
64,825,1071.0,109296
64,830,1081.0,109947
63,835,1045.0,110311
63,840,1054.0,111306
63,845,1060.0,111910
63,850,1033.0,112456
62,855,1050.0,113444
62,860,1048.0,114038
62,865,1047.0,114897
62,870,1065.0,115892
61,875,1086.0,116760
61,880,1081.0,117233
61,885,1099.0,118228
61,890,1107.0,118766
60,895,1134.0,119738
60,900,1149.0,120596
60,905,1158.0,121404
60,910,1179.0,122338
59,915,1211.0,123065
59,920,1216.0,123637
59,925,1203.0,124229
59,930,1224.0,124883
58,935,1264.0,125691
58,940,1246.0,126487
58,945,1270.0,127236
58,950,1288.0,127939
57,955,1301.0,128934
57,960,1323.0,129753
57,965,1337.0,130431
57,970,1329.0,131258
56,975,1332.0,131919
56,980,1349.0,132636
56,985,1352.0,133184
56,990,1373.0,133927
56,995,1354.0,134368
55,1000,1343.0,135012
55,1005,1302.0,135310
55,1010,1300.0,135965
55,1015,1305.0,136652
55,1020,1309.0,137403
54,1025,1310.0,138041
54,1030,1297.0,138917
54,1035,1311.0,139912
53,1040,1347.0,140870
53,1045,1330.0,141541
53,1050,1365.0,142536
53,1055,1354.0,143531
52,1060,1336.0,144103
52,1065,1335.0,145013
52,1070,1354.0,146008
52,1075,1353.0,146836
51,1080,1372.0,147652
51,1085,1380.0,148411
51,1090,1373.0,149126
51,1095,1401.0,149847
50,1100,1441.0,150842
50,1105,1447.0,151189
50,1110,1449.0,151761
50,1115,1423.0,152255
49,1120,1459.0,153123
49,1125,1475.0,153649
49,1130,1473.0,154290
49,1135,1477.0,154983
49,1140,1471.0,155978
48,1145,1492.0,156973
48,1150,1443.0,157459
48,1155,1437.0,158180
48,1160,1475.0,159134
47,1165,1491.0,159972
47,1170,1499.0,160967
47,1175,1500.0,161670
46,1180,1498.0,162395
46,1185,1489.0,162849
46,1190,1489.0,163423
46,1195,1455.0,163951
46,1200,1425.0,164781
45,1205,1462.0,165776
45,1210,1456.0,166479
45,1215,1452.0,166880
45,1220,1449.0,167748
44,1225,1447.0,168385
44,1230,1500.0,169341
44,1235,1491.0,170153
44,1240,1510.0,171087
43,1245,1489.0,171736
43,1250,1512.0,172310
43,1255,1471.0,172474
43,1260,1456.0,173145
43,1265,1432.0,173808
43,1270,1406.0,174195
42,1275,1399.0,174826
42,1280,1404.0,175636
42,1285,1426.0,176329
42,1290,1460.0,177143
41,1295,1479.0,177640
41,1300,1502.0,178458
41,1305,1509.0,179453
41,1310,1521.0,179985
40,1315,1555.0,180658
40,1320,1524.0,181067
40,1325,1565.0,182062
40,1330,1536.0,182747
40,1335,1529.0,183433
39,1340,1505.0,184428
39,1345,1543.0,185260
39,1350,1535.0,185996
38,1355,1564.0,186808
38,1360,1541.0,187348
38,1365,1560.0,188060
38,1370,1580.0,188827
38,1375,1607.0,189737
37,1380,1602.0,190367
37,1385,1596.0,191210
37,1390,1569.0,192030
36,1395,1593.0,192911
36,1400,1609.0,193906
36,1405,1600.0,194526
36,1410,1626.0,195393
35,1415,1630.0,196050
35,1420,1655.0,196620
35,1425,1637.0,197222
35,1430,1608.0,197543
35,1435,1629.0,198266
35,1440,1615.0,198892
34,1445,1589.0,199874
34,1450,1604.0,200714
34,1455,1638.0,201688
33,1460,1660.0,202511
33,1465,1666.0,203292
33,1470,1648.0,203929
33,1475,1657.0,204739
32,1480,1660.0,205573
32,1485,1660.0,206153
32,1490,1665.0,206790
32,1495,1661.0,207488
31,1500,1654.0,208241
31,1505,1644.0,208880
31,1510,1629.0,209705
31,1515,1648.0,210700
31,1520,1620.0,211048
30,1525,1629.0,211884
30,1530,1665.0,212541
30,1535,1662.0,213489
29,1540,1712.0,214305
29,1545,1754.0,215300
29,1550,1748.0,215884
29,1555,1749.0,216593
28,1560,1760.0,217429
28,1565,1785.0,218424
28,1570,1820.0,219163
28,1575,1799.0,219787
27,1580,1796.0,220458
27,1585,1810.0,221310
27,1590,1833.0,222120
27,1595,1822.0,222638
26,1600,1835.0,223486
26,1605,1887.0,224468
26,1610,1898.0,225129
26,1615,1917.0,226099
25,1620,1952.0,226886
25,1625,1937.0,227410
25,1630,1957.0,228232
25,1635,1972.0,229084
24,1640,1993.0,230079
24,1645,1948.0,230679
24,1650,1988.0,231434
24,1655,1988.0,232244
23,1660,1994.0,233092
23,1665,1980.0,233902
23,1670,2004.0,234874
22,1675,2037.0,235798
22,1680,2086.0,236793
22,1685,2089.0,237614
22,1690,2086.0,238510
21,1695,2127.0,239492
21,1700,2113.0,240327
21,1705,2096.0,241137
20,1710,2118.0,242077
20,1715,2114.0,243072
20,1720,2140.0,243849
20,1725,2184.0,244717
19,1730,2202.0,245712
19,1735,2220.0,246707
19,1740,2194.0,247702
18,1745,2217.0,248495
18,1750,2233.0,249490
18,1755,2234.0,250300
17,1760,2288.0,251295
17,1765,2308.0,252213
17,1770,2268.0,252759
17,1775,2290.0,253754
16,1780,2283.0,254749
16,1785,2302.0,255744
16,1790,2343.0,256739
15,1795,2349.0,257635
15,1800,2389.0,258630
15,1805,2404.0,259608
14,1810,2404.0,260289
14,1815,2412.0,261192
14,1820,2432.0,262091
14,1825,2444.0,263008
13,1830,2443.0,263805
13,1835,2435.0,264641
13,1840,2453.0,265476
13,1845,2459.0,266221
12,1850,2468.0,267141
12,1855,2488.0,268136
12,1860,2471.0,269118
11,1865,2486.0,270050
11,1870,2543.0,271045
11,1875,2553.0,272040
10,1880,2564.0,273012
10,1885,2589.0,273902
10,1890,2594.0,274897
9,1895,2605.0,275783
9,1900,2612.0,276457
9,1905,2634.0,277242
9,1910,2655.0,277981
8,1915,2660.0,278963
8,1920,2611.0,279666
8,1925,2620.0,280661
7,1930,2642.0,281656
7,1935,2690.0,282590
7,1940,2717.0,283476
7,1945,2759.0,284341
6,1950,2759.0,285336
6,1955,2783.0,286256
6,1960,2802.0,287092
5,1965,2819.0,287932
5,1970,2801.0,288713
5,1975,2817.0,289708
5,1980,2800.0,290483
4,1985,2791.0,291407
4,1990,2785.0,292213
4,1995,2795.0,293135
3,2000,2791.0,293895
3,2005,2741.0,294453
3,2010,2758.0,295448
3,2015,2763.0,296269
2,2020,2850.0,297165
2,2025,2882.0,298048
2,2030,2906.0,299043
2,2035,2907.0,299989
2,2040,2896.0,300984
2,2045,2914.0,301979
2,2050,2925.0,302901
2,2055,2935.0,303717
2,2060,2950.0,304712
2,2065,2948.0,305707
2,2070,2965.0,306667
2,2075,2988.0,307595
2,2080,3043.0,308575
2,2085,3068.0,309545
2,2090,3063.0,310393
2,2095,3069.0,311388
2,2100,3092.0,312321
2,2105,3153.0,313146
2,2110,3173.0,314141
2,2115,3171.0,314835
2,2120,3150.0,315830
2,2125,3143.0,316825
2,2130,3117.0,317820
2,2135,3134.0,318815
2,2140,3150.0,319810
2,2145,3147.0,320746
2,2150,3145.0,321525
2,2155,3128.0,322389
2,2160,3109.0,323335
2,2165,3120.0,324330
2,2170,3137.0,325325
2,2175,3114.0,326320
2,2180,3109.0,327302
2,2185,3129.0,328297
2,2190,3146.0,329292
2,2195,3150.0,330244
2,2200,3121.0,331019
2,2205,3137.0,332014
2,2210,3099.0,332744
2,2215,3096.0,333505
2,2220,3117.0,334463
2,2225,3117.0,335457
2,2230,3157.0,336452
2,2235,3118.0,337447
2,2240,3124.0,338379
2,2245,3131.0,339311
2,2250,3154.0,340291
2,2255,3167.0,341101
2,2260,3175.0,342096
2,2265,3145.0,342924
2,2270,3150.0,343904
2,2275,3167.0,344860
2,2280,3184.0,345855
2,2285,3163.0,346850
2,2290,3172.0,347845
2,2295,3173.0,348757
2,2300,3211.0,349752
2,2305,3216.0,350744
2,2310,3245.0,351739
2,2315,3270.0,352670
2,2320,3234.0,353447
2,2325,3230.0,354356
2,2330,3212.0,355323
2,2335,3219.0,356318
2,2340,3205.0,357180
2,2345,3223.0,358175
2,2350,3227.0,359087
2,2355,3225.0,359803
2,2360,3214.0,360798
2,2365,3230.0,361793
2,2370,3234.0,362693
2,2375,3225.0,363600
2,2380,3216.0,364595
2,2385,3210.0,365495
2,2390,3222.0,366490
2,2395,3243.0,367340
2,2400,3236.0,368335
2,2405,3242.0,369330
2,2410,3236.0,370264
2,2415,3231.0,371094
2,2420,3273.0,371965
2,2425,3280.0,372913
2,2430,3269.0,373738
2,2435,3282.0,374634
2,2440,3307.0,375599
2,2445,3295.0,376594
2,2450,3290.0,377526
2,2455,3312.0,378521
2,2460,3324.0,379483
2,2465,3361.0,380354
2,2470,3359.0,381236
2,2475,3357.0,382130
2,2480,3370.0,382967
2,2485,3361.0,383815
2,2490,3362.0,384638
2,2495,3354.0,385618
2,2500,3362.0,386613
2,2505,3359.0,387533
2,2510,3371.0,388503
2,2515,3409.0,389382
2,2520,3422.0,390248
2,2525,3420.0,391079
2,2530,3442.0,391991
2,2535,3440.0,392868
2,2540,3447.0,393789
2,2545,3436.0,394625
2,2550,3435.0,395540
2,2555,3423.0,396500
2,2560,3419.0,397357
2,2565,3406.0,398238
2,2570,3412.0,399183
2,2575,3417.0,400105
2,2580,3404.0,400873
2,2585,3423.0,401816
2,2590,3420.0,402665
2,2595,3410.0,403403
2,2600,3434.0,404236
2,2605,3432.0,405136
2,2610,3412.0,406092
2,2615,3373.0,406911
2,2620,3332.0,407627
2,2625,3345.0,408497
2,2630,3336.0,409430
2,2635,3338.0,410122
2,2640,3324.0,410982
2,2645,3318.0,411903
2,2650,3327.0,412861
2,2655,3336.0,413753
2,2660,3357.0,414723
2,2665,3352.0,415454
2,2670,3352.0,416333
2,2675,3354.0,417204
2,2680,3360.0,418089
2,2685,3364.0,418976
2,2690,3366.0,419845
2,2695,3390.0,420773
2,2700,3359.0,421612
2,2705,3353.0,422233
2,2710,3372.0,423013
2,2715,3415.0,423873
2,2720,3448.0,424628
2,2725,3454.0,425487
2,2730,3457.0,426411
2,2735,3436.0,427126
2,2740,3429.0,428121
2,2745,3460.0,429029
2,2750,3447.0,429975
2,2755,3447.0,430887
2,2760,3445.0,431798
2,2765,3441.0,432609
2,2770,3439.0,433432
2,2775,3425.0,434420
2,2780,3411.0,435299
2,2785,3402.0,436209
2,2790,3373.0,436879
2,2795,3338.0,437591
2,2800,3344.0,438378
2,2805,3345.0,439227
2,2810,3348.0,440062
2,2815,3323.0,440925
2,2820,3314.0,441774
2,2825,3290.0,442681
2,2830,3287.0,443493
2,2835,3331.0,444292
2,2840,3360.0,445069
2,2845,3357.0,445930
2,2850,3366.0,446837
2,2855,3368.0,447606
2,2860,3360.0,448432
2,2865,3378.0,449301
2,2870,3372.0,450139
2,2875,3385.0,450864
2,2880,3400.0,451826
2,2885,3422.0,452683
2,2890,3445.0,453403
2,2895,3491.0,454101
2,2900,3520.0,454961
2,2905,3541.0,455790
2,2910,3530.0,456624
2,2915,3548.0,457473
2,2920,3553.0,458350
2,2925,3567.0,459250
2,2930,3572.0,460126
2,2935,3574.0,460965
2,2940,3564.0,461844
2,2945,3575.0,462797
2,2950,3573.0,463640
2,2955,3572.0,464628
2,2960,3595.0,465461
2,2965,3606.0,466292
2,2970,3608.0,467044
2,2975,3640.0,467836
2,2980,3643.0,468708
2,2985,3622.0,469465
2,2990,3629.0,470241
2,2995,3620.0,470950
2,3000,3603.0,471791
2,3005,3594.0,472786
2,3010,3620.0,473427
2,3015,3582.0,474204
2,3020,3580.0,475121
2,3025,3578.0,475957
2,3030,3564.0,476718
2,3035,3562.0,477582
2,3040,3553.0,478476
2,3045,3512.0,479227
2,3050,3542.0,479915
2,3055,3566.0,480731
2,3060,3557.0,481508
2,3065,3538.0,482169
2,3070,3569.0,483080
2,3075,3554.0,483908
2,3080,3556.0,484834
2,3085,3591.0,485709
2,3090,3590.0,486298
2,3095,3603.0,487071
2,3100,3617.0,487876
2,3105,3596.0,488735
2,3110,3587.0,489579
2,3115,3632.0,490496
2,3120,3633.0,491230
2,3125,3627.0,492101
2,3130,3653.0,493012
2,3135,3650.0,494007
2,3140,3669.0,494917
2,3145,3710.0,495633
2,3150,3702.0,496519
2,3155,3699.0,497408
2,3160,3717.0,498099
2,3165,3733.0,498883
2,3170,3734.0,499720
2,3175,3736.0,500614
2,3180,3743.0,501464
2,3185,3754.0,502223
2,3190,3745.0,502893
2,3195,3713.0,503711
2,3200,3677.0,504448
2,3205,3673.0,505195
2,3210,3690.0,505914
2,3215,3674.0,506589
2,3220,3679.0,507507
2,3225,3677.0,508181
2,3230,3635.0,508760
2,3235,3621.0,509507
2,3240,3606.0,510502
2,3245,3592.0,511497
2,3250,3597.0,512264
2,3255,3573.0,513019
2,3260,3552.0,513856
2,3265,3547.0,514851
2,3270,3554.0,515618
2,3275,3530.0,516613
2,3280,3516.0,517608
2,3285,3496.0,518603
2,3290,3495.0,519431
2,3295,3502.0,520348
2,3300,3497.0,521176
2,3305,3516.0,521722
2,3310,3505.0,522717
2,3315,3529.0,523637
2,3320,3526.0,524549
2,3325,3548.0,525422
2,3330,3566.0,526252
2,3335,3575.0,527121
2,3340,3567.0,527793
2,3345,3561.0,528679
2,3350,3562.0,529460
2,3355,3591.0,530170
2,3360,3600.0,530999
2,3365,3605.0,531917
2,3370,3601.0,532689
2,3375,3615.0,533377
2,3380,3633.0,534129
2,3385,3650.0,534984
2,3390,3684.0,535893
2,3395,3713.0,536715
2,3400,3728.0,537423
2,3405,3749.0,538252
2,3410,3765.0,538880
2,3415,3750.0,539630
2,3420,3761.0,540359
2,3425,3760.0,541041
2,3430,3785.0,541853
2,3435,3796.0,542613
2,3440,3814.0,543479
2,3445,3837.0,544369
2,3450,3827.0,545265
2,3455,3823.0,546132
2,3460,3822.0,547127
2,3465,3834.0,547738
2,3470,3819.0,548662
2,3475,3836.0,549495
2,3480,3841.0,550374
2,3485,3826.0,551287
2,3490,3825.0,552117
2,3495,3802.0,552808
2,3500,3831.0,553528
2,3505,3832.0,554230
2,3510,3823.0,555107
2,3515,3834.0,555971
2,3520,3808.0,556599
2,3525,3817.0,557312
2,3530,3829.0,558193
2,3535,3827.0,559165
2,3540,3827.0,560099
2,3545,3809.0,561094
2,3550,3817.0,561924
2,3555,3793.0,562675
2,3560,3787.0,563426
2,3565,3783.0,564100
2,3570,3797.0,564878
2,3575,3799.0,565641
2,3580,3798.0,566317
2,3585,3808.0,567282
2,3590,3790.0,567965
2,3595,3759.0,568664
2,3600,3760.0,569341
2,3605,3763.0,570146
2,3610,3746.0,570951
2,3615,3752.0,571722
2,3620,3780.0,572394
2,3625,3753.0,572970
2,3630,3759.0,573587
2,3635,3760.0,574503
2,3640,3776.0,575210
2,3645,3784.0,576045
2,3650,3780.0,576892
2,3655,3812.0,577586
2,3660,3833.0,578314
2,3665,3832.0,579095
2,3670,3802.0,579797
2,3675,3807.0,580445
2,3680,3808.0,581149
2,3685,3816.0,581905
2,3690,3813.0,582533
2,3695,3861.0,583289
2,3700,3856.0,584078
2,3705,3853.0,584829
2,3710,3844.0,585508
2,3715,3842.0,586187
2,3720,3837.0,587024
2,3725,3866.0,587732
2,3730,3865.0,588495
2,3735,3858.0,589336
2,3740,3857.0,590010
2,3745,3865.0,590832
2,3750,3858.0,591643
2,3755,3852.0,592314
2,3760,3853.0,593149
2,3765,3848.0,593987
2,3770,3880.0,594744
2,3775,3854.0,595251
2,3780,3851.0,596032
2,3785,3825.0,596865
2,3790,3850.0,597525
2,3795,3859.0,598122
2,3800,3855.0,599037
2,3805,3842.0,599977
2,3810,3858.0,600894
2,3815,3826.0,601613
2,3820,3795.0,602404
2,3825,3792.0,603245
2,3830,3764.0,604030
2,3835,3775.0,604713
2,3840,3769.0,605414
2,3845,3753.0,606094
2,3850,3748.0,606799
2,3855,3704.0,607403
2,3860,3684.0,608158
2,3865,3690.0,608827
2,3870,3690.0,609560
2,3875,3716.0,610234
2,3880,3679.0,611087
2,3885,3687.0,611853
2,3890,3674.0,612569
2,3895,3668.0,613323
2,3900,3630.0,614163
2,3905,3608.0,614792
2,3910,3566.0,615279
2,3915,3599.0,616059
2,3920,3604.0,616735
2,3925,3585.0,617539
2,3930,3576.0,618303
2,3935,3548.0,619143
2,3940,3491.0,619709
2,3945,3468.0,620216
2,3950,3454.0,620854
2,3955,3455.0,621565
2,3960,3450.0,622560
2,3965,3406.0,623291
2,3970,3384.0,624167
2,3975,3366.0,624960
2,3980,3405.0,625740
2,3985,3400.0,626259
2,3990,3387.0,627131
2,3995,3366.0,628007
2,4000,3383.0,628883
2,4005,3399.0,629878
2,4010,3408.0,630754
2,4015,3386.0,631630
2,4020,3384.0,632506
2,4025,3356.0,633238
2,4030,3379.0,634233
2,4035,3396.0,635037
2,4040,3429.0,635913
2,4045,3448.0,636789
2,4050,3455.0,637626
2,4055,3489.0,638621
2,4060,3477.0,639259
2,4065,3495.0,640135
2,4070,3498.0,641011
2,4075,3483.0,641768
2,4080,3424.0,642340
2,4085,3434.0,643335
2,4090,3434.0,644055
2,4095,3448.0,645050
2,4100,3435.0,645920
2,4105,3414.0,646636
2,4110,3436.0,647572
2,4115,3428.0,648567
2,4120,3410.0,649306
2,4125,3417.0,650301
2,4130,3399.0,651296
2,4135,3387.0,652291
2,4140,3388.0,653286
2,4145,3360.0,654112
2,4150,3336.0,654934
2,4155,3316.0,655929
2,4160,3322.0,656924
2,4165,3314.0,657919
2,4170,3302.0,658914
2,4175,3301.0,659909
2,4180,3326.0,660904
2,4185,3305.0,661899
2,4190,3303.0,662894
2,4195,3272.0,663846
2,4200,3285.0,664841
2,4205,3285.0,665836
2,4210,3282.0,666831
2,4215,3276.0,667826
2,4220,3299.0,668821
2,4225,3272.0,669643
2,4230,3258.0,670638
2,4235,3258.0,671633
2,4240,3250.0,672628
2,4245,3273.0,673623
2,4250,3294.0,674618
2,4255,3293.0,675613
2,4260,3287.0,676608
2,4265,3288.0,677603
2,4270,3287.0,678598
2,4275,3281.0,679470
2,4280,3270.0,680465
2,4285,3258.0,681460
2,4290,3241.0,682292
2,4295,3249.0,683287
2,4300,3246.0,684282
2,4305,3249.0,685154
2,4310,3249.0,686149
2,4315,3254.0,687144
2,4320,3253.0,688138
2,4325,3291.0,689133
2,4330,3308.0,690128
2,4335,3314.0,691110
2,4340,3320.0,692105
2,4345,3322.0,693019
2,4350,3321.0,694014
2,4355,3320.0,694996
2,4360,3330.0,695991
2,4365,3330.0,696986
2,4370,3335.0,697981
2,4375,3338.0,698976
2,4380,3349.0,699971
2,4385,3360.0,700966
2,4390,3373.0,701961
2,4395,3377.0,702895
2,4400,3386.0,703890
2,4405,3379.0,704662
2,4410,3387.0,705654
2,4415,3398.0,706602
2,4420,3403.0,707492
2,4425,3415.0,708401
2,4430,3407.0,709260
2,4435,3385.0,710204
2,4440,3384.0,710894
2,4445,3393.0,711661
2,4450,3393.0,712346
2,4455,3396.0,713314
2,4460,3400.0,714190
2,4465,3389.0,715014
2,4470,3401.0,715840
2,4475,3416.0,716600
2,4480,3434.0,717517
2,4485,3450.0,718453
2,4490,3464.0,719398
2,4495,3475.0,720295
2,4500,3476.0,721216
2,4505,3506.0,722211
2,4510,3509.0,723206
2,4515,3509.0,724094
2,4520,3517.0,725089
2,4525,3507.0,725978
2,4530,3519.0,726930
2,4535,3543.0,727894
2,4540,3547.0,728785
2,4545,3544.0,729695
2,4550,3546.0,730690
2,4555,3557.0,731550
2,4560,3521.0,732123
2,4565,3535.0,733083
2,4570,3523.0,734053
2,4575,3490.0,735025
2,4580,3475.0,735933
2,4585,3450.0,736928
2,4590,3431.0,737923
2,4595,3397.0,738738
2,4600,3384.0,739733
2,4605,3355.0,740691
2,4610,3329.0,741563
2,4615,3323.0,742545
2,4620,3310.0,743402
2,4625,3311.0,744397
2,4630,3284.0,745206
2,4635,3287.0,746186
2,4640,3271.0,747158
2,4645,3269.0,748116
2,4650,3232.0,748861
2,4655,3225.0,749853
2,4660,3247.0,750848
2,4665,3251.0,751843
2,4670,3256.0,752838
2,4675,3276.0,753833
2,4680,3265.0,754705
2,4685,3274.0,755613
2,4690,3271.0,756485
2,4695,3295.0,757371
2,4700,3280.0,758243
2,4705,3289.0,759181
2,4710,3288.0,760176
2,4715,3287.0,761082
2,4720,3293.0,762077
2,4725,3278.0,763072
2,4730,3290.0,764067
2,4735,3279.0,765062
2,4740,3284.0,765934
2,4745,3279.0,766793
2,4750,3322.0,767788
2,4755,3325.0,768783
2,4760,3341.0,769778
2,4765,3292.0,770435
2,4770,3258.0,771261
2,4775,3264.0,772231
2,4780,3267.0,773226
2,4785,3293.0,774213
2,4790,3286.0,775099
2,4795,3286.0,776094
2,4800,3312.0,777089
2,4805,3332.0,778084
2,4810,3349.0,779079
2,4815,3356.0,780074
2,4820,3366.0,781069
2,4825,3384.0,782064
2,4830,3393.0,783010
2,4835,3412.0,784005
2,4840,3423.0,784993
2,4845,3410.0,785865
2,4850,3390.0,786860
2,4855,3399.0,787855
2,4860,3393.0,788850
2,4865,3435.0,789678
2,4870,3474.0,790673
2,4875,3462.0,791668
2,4880,3456.0,792663
2,4885,3435.0,793658
2,4890,3461.0,794653
2,4895,3469.0,795549
2,4900,3475.0,796441
2,4905,3456.0,797436
2,4910,3480.0,798431
2,4915,3481.0,799426
2,4920,3475.0,800421
2,4925,3493.0,801416
2,4930,3500.0,802411
2,4935,3507.0,803406
2,4940,3482.0,804302
2,4945,3510.0,805297
2,4950,3536.0,806169
2,4955,3529.0,807164
2,4960,3543.0,808040
2,4965,3549.0,809035
2,4970,3555.0,810030
2,4975,3580.0,811025
2,4980,3618.0,812020
2,4985,3646.0,813002
2,4990,3645.0,813997
2,4995,3656.0,814791
2,5000,3651.0,815741
2,5005,3665.0,816733
2,5010,3670.0,817656
2,5015,3682.0,818651
2,5020,3689.0,819587
2,5025,3637.0,820344
2,5030,3636.0,821222
2,5035,3623.0,822122
2,5040,3638.0,822760
2,5045,3642.0,823750
2,5050,3627.0,824745
2,5055,3630.0,825621
2,5060,3621.0,826497
2,5065,3610.0,827135
2,5070,3598.0,828130
2,5075,3581.0,829006
2,5080,3546.0,829521
2,5085,3523.0,830443
2,5090,3544.0,831438
2,5095,3550.0,832335
2,5100,3574.0,833330
2,5105,3594.0,834324
2,5110,3593.0,835319
2,5115,3591.0,836314
2,5120,3588.0,837179
2,5125,3618.0,837936
2,5130,3624.0,838812
2,5135,3626.0,839688
2,5140,3619.0,840207
2,5145,3591.0,841045
2,5150,3613.0,842040
2,5155,3577.0,842733
2,5160,3562.0,843609
2,5165,3574.0,844309
2,5170,3579.0,845162
2,5175,3566.0,846001
2,5180,3578.0,846758
2,5185,3545.0,847540
2,5190,3480.0,848393
2,5195,3465.0,849388
2,5200,3436.0,850383
2,5205,3411.0,851186
2,5210,3383.0,851943
2,5215,3373.0,852938
2,5220,3349.0,853814
2,5225,3352.0,854732
2,5230,3327.0,855443
2,5235,3294.0,856192
2,5240,3322.0,857068
2,5245,3344.0,857944
2,5250,3301.0,858784
2,5255,3333.0,859647
2,5260,3342.0,860448
2,5265,3357.0,861324
2,5270,3371.0,862319
2,5275,3413.0,863301
2,5280,3443.0,864290
2,5285,3499.0,865232
2,5290,3552.0,866146
2,5295,3557.0,867042
2,5300,3528.0,867847
2,5305,3532.0,868842
2,5310,3545.0,869837
2,5315,3550.0,870761
2,5320,3587.0,871756
2,5325,3610.0,872751
2,5330,3643.0,873647
2,5335,3671.0,874533
2,5340,3644.0,875433
2,5345,3586.0,876186
2,5350,3639.0,877181
2,5355,3659.0,878176
2,5360,3686.0,879171
2,5365,3696.0,880166
2,5370,3696.0,881161
2,5375,3652.0,882156
2,5380,3651.0,883082
2,5385,3624.0,884077
2,5390,3617.0,885072
2,5395,3627.0,886067
2,5400,3639.0,887062
2,5405,3653.0,887996
2,5410,3668.0,888991
2,5415,3669.0,889986
2,5420,3668.0,890981
2,5425,3653.0,891976
2,5430,3654.0,892971
2,5435,3663.0,893871
2,5440,3701.0,894815
2,5445,3753.0,895810
2,5450,3736.0,896805
2,5455,3737.0,897800
2,5460,3721.0,898795
2,5465,3700.0,899790
2,5470,3701.0,900785
2,5475,3744.0,901719
2,5480,3739.0,902714
2,5485,3765.0,903709
2,5490,3780.0,904605
2,5495,3776.0,905466
2,5500,3818.0,906461
2,5505,3821.0,907304
2,5510,3819.0,908299
2,5515,3821.0,909294
2,5520,3825.0,910289
2,5525,3839.0,911284
2,5530,3840.0,912279
2,5535,3847.0,913257
2,5540,3830.0,914252
2,5545,3831.0,915247
2,5550,3844.0,916195
2,5555,3842.0,917190
2,5560,3848.0,918185
2,5565,3851.0,919039
2,5570,3854.0,920009
2,5575,3846.0,920881
2,5580,3823.0,921876
2,5585,3824.0,922871
2,5590,3831.0,923866
2,5595,3831.0,924861
2,5600,3822.0,925856
2,5605,3824.0,926851
2,5610,3827.0,927846
2,5615,3811.0,928841
2,5620,3799.0,929836
2,5625,3768.0,930623
2,5630,3755.0,931618
2,5635,3748.0,932613
2,5640,3768.0,933595
2,5645,3788.0,934590
2,5650,3793.0,935585
2,5655,3785.0,936529
2,5660,3796.0,937513
2,5665,3786.0,938339
2,5670,3786.0,939302
2,5675,3795.0,940297
2,5680,3825.0,941133
2,5685,3822.0,942039
2,5690,3823.0,942951
2,5695,3826.0,943865
2,5700,3830.0,944860
2,5705,3834.0,945661
2,5710,3830.0,946610
2,5715,3852.0,947538
2,5720,3867.0,948299
2,5725,3890.0,948990
2,5730,3910.0,949774
2,5735,3885.0,950377
2,5740,3887.0,951108
2,5745,3829.0,952092
2,5750,3803.0,952834
2,5755,3818.0,953623
2,5760,3797.0,954157
2,5765,3803.0,954685
2,5770,3798.0,955371
2,5775,3773.0,955980
2,5780,3776.0,956812
2,5785,3780.0,957756
2,5790,3778.0,958736
2,5795,3761.0,959655
2,5800,3768.0,960609
2,5805,3766.0,961535
2,5810,3766.0,962345
2,5815,3774.0,963024
2,5820,3745.0,963886
2,5825,3723.0,964673
2,5830,3719.0,965668
2,5835,3754.0,966663
2,5840,3735.0,967453
2,5845,3792.0,968447
2,5850,3812.0,969416
2,5855,3809.0,970361
2,5860,3829.0,971297
2,5865,3856.0,971941
2,5870,3860.0,972716
2,5875,3886.0,973381
2,5880,3883.0,973987
2,5885,3884.0,974673
2,5890,3889.0,975307
2,5895,3912.0,975979
2,5900,3908.0,976588
2,5905,3909.0,977287
2,5910,3913.0,978081
2,5915,3877.0,978634
2,5920,3908.0,979293
2,5925,3940.0,979922
2,5930,3947.0,980527
2,5935,3951.0,981118
2,5940,3972.0,981729
2,5945,3979.0,982328
2,5950,3984.0,983052
2,5955,3971.0,983968
2,5960,3974.0,984684
2,5965,3965.0,985420
2,5970,3972.0,986082
2,5975,3978.0,986736
2,5980,3980.0,987488
2,5985,3945.0,988258
2,5990,3940.0,989129
2,5995,3927.0,989875
2,6000,3925.0,990737
2,6005,3912.0,991436
2,6010,3903.0,992124
2,6015,3934.0,992960
2,6020,3905.0,993713
2,6025,3895.0,994603
2,6030,3887.0,995248
2,6035,3885.0,996031
2,6040,3874.0,996845
2,6045,3874.0,997553
2,6050,3865.0,998227
2,6055,3876.0,999056
2,6060,3879.0,999787
2,6065,3887.0,1000473
2,6070,3886.0,1001094
2,6075,3882.0,1001858
2,6080,3870.0,1002606
2,6085,3884.0,1003412
2,6090,3889.0,1004117
2,6095,3900.0,1004876
2,6100,3901.0,1005480
2,6105,3913.0,1006317
2,6110,3907.0,1007000
2,6115,3889.0,1007720
2,6120,3918.0,1008418
2,6125,3931.0,1009030
2,6130,3930.0,1009613
2,6135,3932.0,1010247
2,6140,3882.0,1011114
2,6145,3881.0,1011869
2,6150,3895.0,1012551
2,6155,3902.0,1013182
2,6160,3882.0,1013817
2,6165,3880.0,1014516
2,6170,3862.0,1015307
2,6175,3865.0,1015944
2,6180,3879.0,1016647
2,6185,3903.0,1017292
2,6190,3890.0,1018024
2,6195,3892.0,1018719
2,6200,3883.0,1019375
2,6205,3883.0,1020259
2,6210,3897.0,1021210
2,6215,3920.0,1021907
2,6220,3919.0,1022784
2,6225,3892.0,1023548
2,6230,3903.0,1024224
2,6235,3903.0,1024935
2,6240,3950.0,1025621
2,6245,3947.0,1026385
2,6250,3937.0,1027158
2,6255,3935.0,1027964
2,6260,3954.0,1028771
2,6265,3955.0,1029582
2,6270,3973.0,1030262
2,6275,3973.0,1030947
2,6280,3966.0,1031780
2,6285,3961.0,1032551
2,6290,3965.0,1033144
2,6295,3964.0,1033879
2,6300,3980.0,1034631
2,6305,3961.0,1035279
2,6310,3967.0,1035912
2,6315,3939.0,1036679
2,6320,3935.0,1037423
2,6325,3933.0,1038295
2,6330,3933.0,1038971
2,6335,3933.0,1039674
2,6340,3947.0,1040367
2,6345,3926.0,1041058
2,6350,3935.0,1041690
2,6355,3877.0,1042140
2,6360,3839.0,1042901
2,6365,3817.0,1043430
2,6370,3817.0,1044104
2,6375,3815.0,1044870
2,6380,3819.0,1045488
2,6385,3820.0,1046114
2,6390,3830.0,1046752
2,6395,3830.0,1047350
2,6400,3835.0,1047948
2,6405,3857.0,1048581
2,6410,3850.0,1049379
2,6415,3878.0,1050068
2,6420,3884.0,1050739
2,6425,3885.0,1051348
2,6430,3883.0,1052052
2,6435,3859.0,1052839
2,6440,3832.0,1053685
2,6445,3853.0,1054353
2,6450,3834.0,1055034
2,6455,3882.0,1055765
2,6460,3920.0,1056375
2,6465,3944.0,1057029
2,6470,3916.0,1057789
2,6475,3888.0,1058557
2,6480,3860.0,1059180
2,6485,3861.0,1059957
2,6490,3862.0,1060582
2,6495,3859.0,1061454
2,6500,3854.0,1062141
2,6505,3841.0,1062908
2,6510,3847.0,1063518
2,6515,3841.0,1064246
2,6520,3839.0,1064960
2,6525,3867.0,1065634
2,6530,3856.0,1066406
2,6535,3882.0,1067121
2,6540,3911.0,1067728
2,6545,3914.0,1068394
2,6550,3935.0,1069032
2,6555,3922.0,1069734
2,6560,3912.0,1070333
2,6565,3913.0,1070933
2,6570,3940.0,1071599
2,6575,3970.0,1072244
2,6580,3981.0,1072941
2,6585,3983.0,1073649
2,6590,3972.0,1074502
2,6595,3941.0,1075280
2,6600,3909.0,1075841
2,6605,3925.0,1076457
2,6610,3925.0,1077143
2,6615,3931.0,1077771
2,6620,3916.0,1078579
2,6625,3891.0,1079161
2,6630,3903.0,1079907
2,6635,3899.0,1080614
2,6640,3899.0,1081243
2,6645,3888.0,1082024
2,6650,3887.0,1082670
2,6655,3904.0,1083453
2,6660,3887.0,1084048
2,6665,3880.0,1084754
2,6670,3881.0,1085391
2,6675,3881.0,1086117
2,6680,3900.0,1086739
2,6685,3900.0,1087347
2,6690,3907.0,1088034
2,6695,3936.0,1088876
2,6700,3971.0,1089574
2,6705,3969.0,1090356
2,6710,3955.0,1091046
2,6715,3951.0,1091825
2,6720,3966.0,1092674
2,6725,3987.0,1093492
2,6730,3985.0,1094123
2,6735,3990.0,1094806
2,6740,3989.0,1095421
2,6745,4002.0,1096043
2,6750,3997.0,1096747
2,6755,4003.0,1097394
2,6760,4030.0,1098008
2,6765,4034.0,1098681
2,6770,4030.0,1099483
2,6775,4030.0,1100184
2,6780,4029.0,1100958
2,6785,4029.0,1101650
2,6790,4019.0,1102440
2,6795,4024.0,1103171
2,6800,4022.0,1103854
2,6805,4022.0,1104606
2,6810,4033.0,1105232
2,6815,4036.0,1106109
2,6820,4037.0,1106861
2,6825,4038.0,1107725
2,6830,4034.0,1108360
2,6835,4028.0,1109187
2,6840,4028.0,1109805
2,6845,4017.0,1110398
2,6850,4021.0,1111013
2,6855,4020.0,1111639
2,6860,4019.0,1112380
2,6865,4020.0,1113105
2,6870,4023.0,1113775
2,6875,4023.0,1114612
2,6880,4023.0,1115391
2,6885,4022.0,1116095
2,6890,4033.0,1116836
2,6895,4033.0,1117677
2,6900,4030.0,1118512
2,6905,4027.0,1119235
2,6910,4018.0,1120197
2,6915,4017.0,1121021
2,6920,4016.0,1121773
2,6925,4015.0,1122588
2,6930,4020.0,1123281
2,6935,4021.0,1124043
2,6940,4019.0,1124781
2,6945,4004.0,1125389
2,6950,4003.0,1126133
2,6955,3995.0,1126967
2,6960,3995.0,1127783
2,6965,3995.0,1128463
2,6970,3995.0,1129158
2,6975,3996.0,1129824
2,6980,3995.0,1130530
2,6985,3997.0,1131202
2,6990,3999.0,1131926
2,6995,3999.0,1132740
2,7000,4003.0,1133460
2,7005,4007.0,1134079
2,7010,4018.0,1134828
2,7015,4020.0,1135480
2,7020,4020.0,1136136
2,7025,3994.0,1136731
2,7030,3995.0,1137358
2,7035,3971.0,1138002
2,7040,3972.0,1138599
2,7045,3986.0,1139376
2,7050,3989.0,1139982
2,7055,3988.0,1140595
2,7060,3977.0,1141259
2,7065,3979.0,1141904
2,7070,3980.0,1142503
2,7075,3978.0,1143195
2,7080,3947.0,1143877
2,7085,3946.0,1144526
2,7090,3914.0,1145218
2,7095,3911.0,1145912
2,7100,3914.0,1146543
2,7105,3912.0,1147147
2,7110,3910.0,1147957
2,7115,3909.0,1148559
2,7120,3909.0,1149246
2,7125,3939.0,1149864
2,7130,3940.0,1150527
2,7135,3959.0,1151283
2,7140,3958.0,1151921
2,7145,3944.0,1152487
2,7150,3943.0,1153109
2,7155,3947.0,1154015
2,7160,3958.0,1154801
2,7165,3954.0,1155712
2,7170,3925.0,1156497
2,7175,3921.0,1157414
2,7180,3953.0,1158126
2,7185,3950.0,1158724
2,7190,3960.0,1159538
2,7195,3959.0,1160324
2,7200,3928.0,1160927
2,7205,3931.0,1161555
2,7210,3932.0,1162167
2,7215,3930.0,1162877
2,7220,3901.0,1163451
2,7225,3876.0,1164436
2,7230,3862.0,1165073
2,7235,3862.0,1165973
2,7240,3835.0,1166637
2,7245,3860.0,1167302
2,7250,3856.0,1167983
2,7255,3861.0,1168617
2,7260,3852.0,1169267
2,7265,3852.0,1169997
2,7270,3877.0,1170748
2,7275,3876.0,1171629
2,7280,3856.0,1172556
2,7285,3855.0,1173345
2,7290,3873.0,1174117
2,7295,3874.0,1174773
2,7300,3899.0,1175483
2,7305,3895.0,1176277
2,7310,3895.0,1177036
2,7315,3862.0,1177873
2,7320,3889.0,1178606
2,7325,3914.0,1179289
2,7330,3924.0,1179986
2,7335,3935.0,1180592
2,7340,3963.0,1181287
2,7345,3960.0,1181983
2,7350,3954.0,1182755
2,7355,3944.0,1183370
2,7360,3955.0,1183970
2,7365,3957.0,1184577
2,7370,3962.0,1185178
2,7375,3968.0,1185782
2,7380,3991.0,1186410
2,7385,3994.0,1187009
2,7390,3999.0,1187634
2,7395,4003.0,1188343
2,7400,4007.0,1189016
2,7405,4003.0,1189794
2,7410,3980.0,1190336
2,7415,4017.0,1190993
2,7420,4017.0,1191750
2,7425,4017.0,1192383
2,7430,4018.0,1193070
2,7435,4018.0,1193710
2,7440,4018.0,1194313
2,7445,4021.0,1194910
2,7450,3999.0,1195719
2,7455,3951.0,1196476
2,7460,3903.0,1197243
2,7465,3824.0,1197742
2,7470,3771.0,1198451
2,7475,3761.0,1199364
2,7480,3757.0,1200114
2,7485,3757.0,1200853
2,7490,3751.0,1201557
2,7495,3743.0,1202293
2,7500,3739.0,1203017
2,7505,3746.0,1203731
2,7510,3765.0,1204314
2,7515,3764.0,1204914
2,7520,3767.0,1205597
2,7525,3741.0,1206297
2,7530,3722.0,1207030
2,7535,3717.0,1207856
2,7540,3716.0,1208663
2,7545,3691.0,1209188
2,7550,3721.0,1209967
2,7555,3781.0,1210565
2,7560,3829.0,1211229
2,7565,3904.0,1211930
2,7570,3957.0,1212584
2,7575,3965.0,1213201
2,7580,3966.0,1213827
2,7585,3968.0,1214435
2,7590,3971.0,1215092
2,7595,3968.0,1215938
2,7600,3972.0,1216646
2,7605,3973.0,1217322
2,7610,3975.0,1218028
2,7615,3971.0,1218738
2,7620,3966.0,1219732
2,7625,3974.0,1220705
2,7630,3991.0,1221543
2,7635,3990.0,1222497
2,7640,3992.0,1223285
2,7645,4016.0,1224084
2,7650,4009.0,1224924
2,7655,4003.0,1225602
2,7660,4000.0,1226324
2,7665,4003.0,1227018
2,7670,3970.0,1227560
2,7675,3969.0,1228336
2,7680,3971.0,1229090
2,7685,3971.0,1229744
2,7690,3971.0,1230370
2,7695,3982.0,1230987
2,7700,3983.0,1231642
2,7705,3982.0,1232274
2,7710,3984.0,1233057
2,7715,3980.0,1233794
2,7720,3981.0,1234642
2,7725,3999.0,1235257
2,7730,4004.0,1235857
2,7735,4004.0,1236557
2,7740,3966.0,1237283
2,7745,3967.0,1238028
2,7750,3976.0,1238700
2,7755,3982.0,1239414
2,7760,3982.0,1240092
2,7765,3979.0,1240790
2,7770,4010.0,1241510
2,7775,3999.0,1242238
2,7780,3993.0,1243007
2,7785,3991.0,1243725
2,7790,3993.0,1244347
2,7795,3994.0,1245000
2,7800,3995.0,1245700
2,7805,3996.0,1246318
2,7810,3996.0,1247001
2,7815,3971.0,1247749
2,7820,3972.0,1248463
2,7825,3969.0,1249079
2,7830,3966.0,1249884
2,7835,3970.0,1250544
2,7840,3993.0,1251384
2,7845,3993.0,1252019
2,7850,3991.0,1252763
2,7855,3964.0,1253482
2,7860,3966.0,1254111
2,7865,3967.0,1254749
2,7870,3968.0,1255396
2,7875,3981.0,1256011
2,7880,3983.0,1256712
2,7885,3972.0,1257404
2,7890,3967.0,1258093
2,7895,3966.0,1258696
2,7900,3957.0,1259373
2,7905,3955.0,1259976
2,7910,3952.0,1260658
2,7915,3982.0,1261331
2,7920,3982.0,1262018
2,7925,3975.0,1262698
2,7930,3975.0,1263413
2,7935,3974.0,1264087
2,7940,3971.0,1264621
2,7945,3969.0,1265319
2,7950,3971.0,1265917
2,7955,3996.0,1266639
2,7960,3995.0,1267251
2,7965,3989.0,1267887
2,7970,3988.0,1268559
2,7975,3954.0,1269274
2,7980,3958.0,1269877
2,7985,3968.0,1270497
2,7990,3971.0,1271120
2,7995,3958.0,1271898
2,8000,3963.0,1272603
2,8005,3962.0,1273258
2,8010,3968.0,1273932
2,8015,3971.0,1274666
2,8020,3973.0,1275465
2,8025,3981.0,1276240
2,8030,3982.0,1276927
2,8035,3977.0,1277507
2,8040,3996.0,1278146
2,8045,3996.0,1278749
2,8050,3989.0,1279434
2,8055,3991.0,1280100
2,8060,3982.0,1280788
2,8065,3975.0,1281550
2,8070,3948.0,1282080
2,8075,3977.0,1282856
2,8080,3978.0,1283507
2,8085,3981.0,1284152
2,8090,3979.0,1284936
2,8095,3991.0,1285671
2,8100,3994.0,1286309
2,8105,3983.0,1286975
2,8110,3980.0,1287661
2,8115,3974.0,1288413
2,8120,3975.0,1289109
2,8125,3971.0,1289985
2,8130,3971.0,1290782
2,8135,3976.0,1291558
2,8140,3975.0,1292158
2,8145,3976.0,1292858
2,8150,3956.0,1293648
2,8155,3956.0,1294254
2,8160,3961.0,1295100
2,8165,3936.0,1295883
2,8170,3963.0,1296525
2,8175,3970.0,1297156
2,8180,3970.0,1297770
2,8185,3969.0,1298412
2,8190,3941.0,1299191
2,8195,3941.0,1299799
2,8200,3925.0,1300559
2,8205,3937.0,1301225
2,8210,3939.0,1301877
2,8215,3944.0,1302479
2,8220,3946.0,1303145
2,8225,3949.0,1303891
2,8230,3939.0,1304611
2,8235,3942.0,1305236
2,8240,3941.0,1305911
2,8245,3942.0,1306571
2,8250,3970.0,1307285
2,8255,3965.0,1307901
2,8260,3971.0,1308523
2,8265,4013.0,1309140
2,8270,4015.0,1309736
2,8275,4015.0,1310344
2,8280,4014.0,1310940
2,8285,4001.0,1311646
2,8290,4033.0,1312255
2,8295,4035.0,1312892
2,8300,4052.0,1313524
2,8305,4053.0,1314193
2,8310,4044.0,1314896
2,8315,4046.0,1315502
2,8320,4013.0,1316013
2,8325,4015.0,1316650
2,8330,4015.0,1317333
2,8335,4013.0,1317943
2,8340,4014.0,1318626
2,8345,4013.0,1319242
2,8350,4013.0,1319884
2,8355,4019.0,1320514
2,8360,4017.0,1321188
2,8365,4004.0,1321838
2,8370,3990.0,1322473
2,8375,3990.0,1323077
2,8380,3990.0,1323677
2,8385,4002.0,1324273
2,8390,4001.0,1324963
2,8395,4000.0,1325563
2,8400,3995.0,1326322
2,8405,3991.0,1327097
2,8410,4000.0,1327701
2,8415,3998.0,1328411
2,8420,4031.0,1329104
2,8425,4032.0,1329927
2,8430,4043.0,1330559
2,8435,4015.0,1331239
2,8440,4015.0,1331991
2,8445,3987.0,1332837
2,8450,3960.0,1333378
2,8455,3922.0,1334034
2,8460,3924.0,1334653
2,8465,3936.0,1335332
2,8470,3948.0,1336092
2,8475,3947.0,1336711
2,8480,3947.0,1337412
2,8485,3948.0,1338019
2,8490,3950.0,1338625
2,8495,3950.0,1339353
2,8500,3930.0,1340235
2,8505,3930.0,1341051
2,8510,3908.0,1341900
2,8515,3905.0,1342770
2,8520,3901.0,1343566
2,8525,3888.0,1344330
2,8530,3883.0,1345099
2,8535,3912.0,1345720
2,8540,3912.0,1346437
2,8545,3942.0,1347137
2,8550,3968.0,1347790
2,8555,4000.0,1348488
2,8560,4000.0,1349137
2,8565,4001.0,1349760
2,8570,3980.0,1350458
2,8575,3950.0,1351193
2,8580,3934.0,1351989
2,8585,3932.0,1352701
2,8590,3899.0,1353322
2,8595,3898.0,1353923
2,8600,3921.0,1354533
2,8605,3915.0,1355119
2,8610,3937.0,1355722
2,8615,3942.0,1356330
2,8620,3929.0,1357090
2,8625,3943.0,1357702
2,8630,3947.0,1358305
2,8635,3947.0,1358979
2,8640,3948.0,1359619
2,8645,3944.0,1360287
2,8650,3945.0,1361034
2,8655,3946.0,1361793
2,8660,3934.0,1362496
2,8665,3935.0,1363104
2,8670,3955.0,1363729
2,8675,3986.0,1364337
2,8680,4002.0,1364954
2,8685,3999.0,1365684
2,8690,4030.0,1366313
2,8695,4027.0,1367025
2,8700,3997.0,1367716
2,8705,4008.0,1368339
2,8710,4005.0,1369104
2,8715,4002.0,1369949
2,8720,4017.0,1370586
2,8725,4016.0,1371289
2,8730,4015.0,1372160
2,8735,4010.0,1373094
2,8740,4008.0,1373773
2,8745,4011.0,1374392
2,8750,4011.0,1375043
2,8755,4016.0,1375748
2,8760,4026.0,1376378
2,8765,4025.0,1376988
2,8770,4025.0,1377603
2,8775,4021.0,1378415
2,8780,4020.0,1379115
2,8785,4012.0,1379847
2,8790,4010.0,1380545
2,8795,4014.0,1381161
2,8800,4008.0,1381663
2,8805,3992.0,1382300
2,8810,3996.0,1382899
2,8815,3997.0,1383496
2,8820,3999.0,1384114
2,8825,3999.0,1384718
2,8830,3999.0,1385368
2,8835,4004.0,1386068
2,8840,4005.0,1386689
2,8845,3988.0,1387385
2,8850,3987.0,1388001
2,8855,3955.0,1388509
2,8860,3955.0,1389146
2,8865,3955.0,1389756
2,8870,3958.0,1390377
2,8875,3958.0,1391072
2,8880,3933.0,1391614
2,8885,3945.0,1392391
2,8890,3947.0,1392990
2,8895,3946.0,1393600
2,8900,3984.0,1394243
2,8905,3999.0,1394934
2,8910,3995.0,1395536
2,8915,3997.0,1396174
2,8920,3996.0,1396831
2,8925,3996.0,1397446
2,8930,3999.0,1398097
2,8935,3997.0,1398805
2,8940,3994.0,1399561
2,8945,4011.0,1400176
2,8950,4007.0,1400856
2,8955,4036.0,1401452
2,8960,4039.0,1402070
2,8965,4013.0,1402606
2,8970,4013.0,1403214
2,8975,3988.0,1403741
2,8980,4006.0,1404471
2,8985,4005.0,1405280
2,8990,3978.0,1406068
2,8995,3974.0,1407034
2,9000,3970.0,1407814
2,9005,3952.0,1408665
2,9010,3942.0,1409458
2,9015,3928.0,1410397
2,9020,3918.0,1411066
2,9025,3919.0,1411808
2,9030,3916.0,1412551
2,9035,3907.0,1413113
2,9040,3910.0,1413805
2,9045,3909.0,1414453
2,9050,3911.0,1415108
2,9055,3902.0,1415704
2,9060,3901.0,1416307
2,9065,3919.0,1417009
2,9070,3888.0,1417529
2,9075,3910.0,1418166
2,9080,3918.0,1418887
2,9085,3908.0,1419632
2,9090,3913.0,1420396
2,9095,3908.0,1421085
2,9100,3907.0,1421800
2,9105,3923.0,1422461
2,9110,3935.0,1423195
2,9115,3949.0,1423794
2,9120,3906.0,1424232
2,9125,3904.0,1424843
2,9130,3905.0,1425630
2,9135,3911.0,1426367
2,9140,3908.0,1426998
2,9145,3910.0,1427603
2,9150,3907.0,1428247
2,9155,3917.0,1428869
2,9160,3916.0,1429505
2,9165,3915.0,1430196
2,9170,3941.0,1431052
2,9175,3945.0,1431674
2,9180,3944.0,1432515
2,9185,3950.0,1433350
2,9190,3960.0,1434153
2,9195,3961.0,1434990
2,9200,3922.0,1435816
2,9205,3910.0,1436811
2,9210,3898.0,1437806
2,9215,3889.0,1438730
2,9220,3937.0,1439519
2,9225,3936.0,1440124
2,9230,3937.0,1440765
2,9235,3938.0,1441505
2,9240,3899.0,1441980
2,9245,3889.0,1442564
2,9250,3893.0,1443161
2,9255,3893.0,1443784
2,9260,3894.0,1444412
2,9265,3902.0,1445062
2,9270,3882.0,1445604
2,9275,3851.0,1446324
2,9280,3848.0,1446999
2,9285,3834.0,1447796
2,9290,3848.0,1448463
2,9295,3856.0,1449093
2,9300,3899.0,1449739
2,9305,3912.0,1450478
2,9310,3921.0,1451334
2,9315,3907.0,1452019
2,9320,3908.0,1452800
2,9325,3910.0,1453478
2,9330,3910.0,1454236
2,9335,3913.0,1454913
2,9340,3951.0,1455613
2,9345,3958.0,1456306
2,9350,3924.0,1456808
2,9355,3923.0,1457529
2,9360,3921.0,1458274
2,9365,3922.0,1458899
2,9370,3944.0,1459614
2,9375,3968.0,1460223
2,9380,3973.0,1460829
2,9385,3968.0,1461506
2,9390,3965.0,1462214
2,9395,3965.0,1462863
2,9400,3960.0,1463473
2,9405,3962.0,1464071
2,9410,3960.0,1464909
2,9415,3978.0,1465763
2,9420,3981.0,1466451
2,9425,3975.0,1467219
2,9430,3975.0,1467837
2,9435,3974.0,1468471
2,9440,3969.0,1469032
2,9445,3971.0,1469643
2,9450,3995.0,1470401
2,9455,3966.0,1470988
2,9460,3963.0,1471680
2,9465,3939.0,1472243
2,9470,3942.0,1472852
2,9475,3952.0,1473461
2,9480,3951.0,1474080
2,9485,3969.0,1474754
2,9490,3972.0,1475378
2,9495,3970.0,1476062
2,9500,3973.0,1476680
2,9505,3970.0,1477281
2,9510,3931.0,1477985
2,9515,3936.0,1478625
2,9520,3937.0,1479319
2,9525,3942.0,1479918
2,9530,3940.0,1480559
2,9535,3931.0,1481286
2,9540,3910.0,1481967
2,9545,3909.0,1482698
2,9550,3918.0,1483381
2,9555,3922.0,1483966
2,9560,3928.0,1484567
2,9565,3950.0,1485253
2,9570,3945.0,1485937
2,9575,3945.0,1486643
2,9580,3946.0,1487251
2,9585,3951.0,1487950
2,9590,3948.0,1488653
2,9595,3951.0,1489259
2,9600,3954.0,1489863
2,9605,3957.0,1490474
2,9610,3992.0,1491164
2,9615,3992.0,1491776
2,9620,3984.0,1492350
2,9625,3984.0,1492998
2,9630,3985.0,1493747
2,9635,3992.0,1494474
2,9640,4022.0,1495127
2,9645,4020.0,1495761
2,9650,4023.0,1496382
2,9655,4050.0,1496989
2,9660,4044.0,1497685
2,9665,4045.0,1498290
2,9670,4048.0,1498891
2,9675,4035.0,1499583
