% time spent exploring,episodes,mean 100 episode reward,steps
99,5,800.0,738
99,10,588.9,1482
99,15,657.1,2195
98,20,657.9,3082
98,25,633.3,3551
98,30,631.0,4380
98,35,638.2,5292
98,40,610.3,5905
97,45,609.1,6696
97,50,595.9,7447
97,55,587.0,8071
97,60,569.5,8625
96,65,550.0,9233
96,70,539.1,10040
96,75,532.4,10693
96,80,531.6,11439
96,85,541.7,12118
95,90,549.4,12731
95,95,552.1,13069
95,100,533.3,13502
95,105,516.0,14031
95,110,526.0,14660
94,115,519.0,15324
94,120,519.0,16281
94,125,517.0,16942
94,130,507.0,17659
93,135,502.0,18422
93,140,520.0,19089
93,145,519.0,19878
93,150,529.0,20549
93,155,530.0,21236
92,160,533.0,22023
92,165,555.0,22949
92,170,558.0,23848
92,175,557.0,24290
91,180,549.0,24976
91,185,545.0,25562
91,190,560.0,26373
91,195,562.0,27073
91,200,574.0,27513
90,205,577.0,28237
90,210,580.0,28979
90,215,569.0,29606
90,220,559.0,30031
89,225,562.0,30663
89,230,568.0,31234
89,235,572.0,31908
89,240,550.0,32501
89,245,555.0,33174
88,250,566.0,33908
88,255,575.0,34477
88,260,589.0,35195
88,265,583.0,35783
88,270,591.0,36266
87,275,604.0,36759
87,280,619.0,37216
87,285,632.0,38061
87,290,600.0,38474
87,295,601.0,38947
87,300,619.0,39523
86,305,624.0,40348
86,310,616.0,41129
86,315,615.0,41479
86,320,644.0,42113
86,325,659.0,42821
85,330,660.0,43210
85,335,681.0,44062
85,340,703.0,44804
85,345,703.0,45595
84,350,698.0,46280
84,355,692.0,46815
84,360,703.0,47600
84,365,711.0,48372
83,370,728.0,49153
83,375,742.0,49920
83,380,755.0,50650
83,385,743.0,51154
83,390,760.0,51742
82,395,760.0,52111
82,400,751.0,52934
82,405,761.0,53757
82,410,786.0,54420
82,415,806.0,55016
81,420,789.0,55731
81,425,787.0,56230
81,430,794.0,56793
81,435,793.0,57495
80,440,809.0,58384
80,445,808.0,58994
80,450,808.0,59696
80,455,825.0,60532
80,460,814.0,61211
79,465,812.0,61829
79,470,799.0,62287
79,475,797.0,63029
79,480,804.0,63916
79,485,793.0,64112
78,490,806.0,64909
78,495,815.0,65441
78,500,825.0,66053
78,505,830.0,66578
78,510,823.0,67242
77,515,824.0,67769
77,520,829.0,68494
77,525,843.0,69391
77,530,846.0,70055
76,535,834.0,70639
76,540,817.0,71295
76,545,843.0,72183
76,550,858.0,72809
76,555,863.0,73411
75,560,880.0,74165
75,565,889.0,74659
75,570,883.0,75162
75,575,890.0,75808
75,580,888.0,76456
74,585,915.0,76971
74,590,943.0,77924
74,595,943.0,78411
74,600,953.0,79107
73,605,961.0,79745
73,610,982.0,80740
73,615,984.0,81336
73,620,975.0,81913
73,625,977.0,82640
72,630,985.0,83192
72,635,975.0,83524
72,640,982.0,84364
72,645,984.0,84983
72,650,965.0,85371
71,655,963.0,86314
71,660,956.0,87059
71,665,963.0,87797
71,670,1001.0,88657
70,675,992.0,89046
70,680,1006.0,89876
70,685,993.0,90329
70,690,953.0,90874
70,695,945.0,91386
69,700,954.0,92193
69,705,948.0,92702
69,710,943.0,93467
69,715,962.0,94263
68,720,989.0,94931
68,725,984.0,95665
68,730,986.0,96133
68,735,1023.0,96928
68,740,1051.0,97648
67,745,1020.0,97994
67,750,1040.0,98532
67,755,1056.0,99339
67,760,1065.0,100000
67,765,1097.0,100841
66,770,1074.0,101355
66,775,1104.0,102189
66,780,1089.0,102877
66,785,1089.0,103302
66,790,1087.0,103737
65,795,1121.0,104418
65,800,1120.0,105006
65,805,1120.0,105518
65,810,1109.0,105991
65,815,1090.0,106471
64,820,1117.0,107379
64,825,1117.0,107951
64,830,1115.0,108503
64,835,1108.0,109246
64,840,1096.0,110077
63,845,1125.0,110712
63,850,1118.0,111392
63,855,1127.0,112133
63,860,1136.0,112681
62,865,1109.0,113295
62,870,1125.0,113953
62,875,1114.0,114629
62,880,1114.0,115027
62,885,1115.0,115349
62,890,1131.0,116148
61,895,1128.0,116809
61,900,1110.0,117299
61,905,1127.0,118050
61,910,1159.0,118935
60,915,1166.0,119427
60,920,1157.0,120263
60,925,1145.0,120694
60,930,1158.0,121398
60,935,1169.0,122146
59,940,1178.0,123025
59,945,1187.0,123798
59,950,1179.0,124213
59,955,1168.0,124712
59,960,1163.0,125443
58,965,1159.0,126198
58,970,1145.0,126730
58,975,1138.0,127251
58,980,1155.0,127924
57,985,1166.0,128723
57,990,1211.0,129584
57,995,1208.0,130122
57,1000,1246.0,130982
56,1005,1239.0,131687
56,1010,1210.0,132080
56,1015,1198.0,132473
56,1020,1162.0,132721
56,1025,1188.0,133330
56,1030,1206.0,134031
55,1035,1228.0,134882
55,1040,1231.0,135739
55,1045,1230.0,136216
55,1050,1254.0,136875
55,1055,1234.0,137355
55,1060,1222.0,137647
54,1065,1224.0,138182
54,1070,1280.0,139176
54,1075,1314.0,140160
53,1080,1349.0,141058
53,1085,1350.0,141536
53,1090,1317.0,142205
53,1095,1339.0,143049
53,1100,1327.0,143703
52,1105,1331.0,144339
52,1110,1341.0,145206
52,1115,1372.0,145897
52,1120,1403.0,146734
51,1125,1396.0,147479
51,1130,1399.0,148204
51,1135,1366.0,148718
51,1140,1369.0,149389
50,1145,1374.0,150084
50,1150,1379.0,150664
50,1155,1414.0,151588
50,1160,1458.0,152327
50,1165,1458.0,152679
49,1170,1414.0,153195
49,1175,1401.0,154038
49,1180,1353.0,154500
49,1185,1391.0,155200
49,1190,1399.0,155661
48,1195,1383.0,156422
48,1200,1375.0,156946
48,1205,1397.0,157896
48,1210,1400.0,158465
48,1215,1401.0,159091
47,1220,1425.0,159977
47,1225,1436.0,160746
47,1230,1432.0,161511
47,1235,1438.0,162119
46,1240,1419.0,162677
46,1245,1410.0,163186
46,1250,1392.0,163678
46,1255,1403.0,164314
46,1260,1400.0,165128
45,1265,1424.0,165960
45,1270,1455.0,166872
45,1275,1445.0,167576
45,1280,1460.0,168207
44,1285,1453.0,168882
44,1290,1472.0,169544
44,1295,1495.0,170352
44,1300,1554.0,171347
43,1305,1558.0,172110
43,1310,1587.0,173016
43,1315,1594.0,173741
42,1320,1595.0,174563
42,1325,1604.0,175377
42,1330,1626.0,176247
42,1335,1662.0,177067
42,1340,1666.0,177472
41,1345,1697.0,178247
41,1350,1729.0,178955
41,1355,1722.0,179577
41,1360,1735.0,180267
40,1365,1754.0,180917
40,1370,1713.0,181151
40,1375,1730.0,181845
40,1380,1755.0,182711
40,1385,1773.0,183569
39,1390,1783.0,184300
39,1395,1802.0,185182
39,1400,1777.0,186034
39,1405,1765.0,186689
38,1410,1758.0,187388
38,1415,1762.0,188031
38,1420,1737.0,188567
38,1425,1761.0,189519
37,1430,1766.0,190427
37,1435,1754.0,191218
37,1440,1802.0,192126
37,1445,1786.0,192605
36,1450,1802.0,193368
36,1455,1807.0,194043
36,1460,1820.0,195007
36,1465,1809.0,195684
35,1470,1812.0,196091
35,1475,1823.0,196856
35,1480,1824.0,197684
35,1485,1819.0,198371
34,1490,1822.0,199233
34,1495,1800.0,200071
34,1500,1809.0,200820
34,1505,1836.0,201559
33,1510,1848.0,202258
33,1515,1854.0,202963
33,1520,1890.0,203801
33,1525,1903.0,204713
32,1530,1916.0,205708
32,1535,1935.0,206644
32,1540,1951.0,207639
31,1545,1985.0,208488
31,1550,1990.0,209350
31,1555,1993.0,210049
31,1560,2024.0,211044
30,1565,2051.0,211892
30,1570,2111.0,212737
30,1575,2127.0,213442
29,1580,2142.0,214346
29,1585,2168.0,215211
29,1590,2152.0,215934
29,1595,2164.0,216659
28,1600,2157.0,217362
28,1605,2154.0,218041
28,1610,2155.0,218863
28,1615,2174.0,219711
27,1620,2175.0,220706
27,1625,2190.0,221701
27,1630,2173.0,222565
27,1635,2161.0,223377
26,1640,2160.0,224372
26,1645,2152.0,224978
26,1650,2160.0,225805
25,1655,2182.0,226633
25,1660,2152.0,227628
25,1665,2147.0,228456
25,1670,2153.0,229410
24,1675,2155.0,230405
24,1680,2153.0,231223
24,1685,2167.0,232218
23,1690,2193.0,233066
23,1695,2215.0,234061
23,1700,2249.0,234919
22,1705,2250.0,235771
22,1710,2248.0,236583
22,1715,2277.0,237578
22,1720,2276.0,238253
21,1725,2245.0,239063
21,1730,2244.0,239756
21,1735,2269.0,240598
21,1740,2254.0,241385
20,1745,2242.0,242041
20,1750,2244.0,243036
20,1755,2260.0,244031
20,1760,2250.0,244852
19,1765,2264.0,245847
19,1770,2254.0,246679
19,1775,2259.0,247626
18,1780,2251.0,248621
18,1785,2246.0,249616
18,1790,2256.0,250596
17,1795,2251.0,251434
17,1800,2234.0,252429
17,1805,2238.0,253261
16,1810,2258.0,254093
16,1815,2236.0,254896
16,1820,2221.0,255571
16,1825,2249.0,256566
15,1830,2271.0,257499
15,1835,2230.0,257898
15,1840,2231.0,258568
15,1845,2254.0,259538
14,1850,2255.0,260232
14,1855,2242.0,261130
14,1860,2253.0,262010
14,1865,2244.0,262844
13,1870,2232.0,263435
13,1875,2235.0,264108
13,1880,2252.0,265014
13,1885,2230.0,265687
13,1890,2207.0,266168
12,1895,2215.0,266966
12,1900,2211.0,267561
12,1905,2227.0,268410
12,1910,2226.0,269188
11,1915,2229.0,269729
11,1920,2264.0,270311
11,1925,2244.0,270936
11,1930,2233.0,271560
11,1935,2256.0,272067
10,1940,2244.0,272475
10,1945,2259.0,273251
10,1950,2277.0,274098
10,1955,2283.0,275054
9,1960,2276.0,275827
9,1965,2280.0,276377
9,1970,2321.0,277291
9,1975,2325.0,278138
8,1980,2338.0,279032
8,1985,2363.0,279940
8,1990,2390.0,280565
8,1995,2395.0,281438
7,2000,2408.0,282247
7,2005,2418.0,283091
7,2010,2427.0,283961
6,2015,2445.0,284810
6,2020,2452.0,285564
6,2025,2473.0,286300
6,2030,2492.0,287077
5,2035,2515.0,287845
5,2040,2531.0,288667
5,2045,2534.0,289529
5,2050,2536.0,290356
4,2055,2541.0,291244
4,2060,2569.0,292128
4,2065,2579.0,292966
4,2070,2571.0,293875
3,2075,2566.0,294761
3,2080,2564.0,295717
3,2085,2573.0,296699
2,2090,2579.0,297657
2,2095,2580.0,298567
2,2100,2590.0,299414
2,2105,2594.0,300227
2,2110,2595.0,301222
2,2115,2586.0,302166
2,2120,2586.0,303136
2,2125,2593.0,304080
2,2130,2583.0,304891
2,2135,2594.0,305813
2,2140,2618.0,306805
2,2145,2612.0,307679
2,2150,2612.0,308574
2,2155,2615.0,309569
2,2160,2613.0,310564
2,2165,2616.0,311486
2,2170,2621.0,312481
2,2175,2631.0,313415
2,2180,2628.0,314410
2,2185,2625.0,315405
2,2190,2628.0,316400
2,2195,2628.0,317265
2,2200,2629.0,318187
2,2205,2630.0,319063
2,2210,2652.0,320055
2,2215,2664.0,320917
2,2220,2655.0,321706
2,2225,2652.0,322616
2,2230,2641.0,323269
2,2235,2610.0,324078
2,2240,2591.0,324940
2,2245,2600.0,325922
2,2250,2581.0,326734
2,2255,2614.0,327728
2,2260,2624.0,328723
2,2265,2647.0,329657
2,2270,2673.0,330652
2,2275,2691.0,331647
2,2280,2694.0,332557
2,2285,2714.0,333552
2,2290,2717.0,334547
2,2295,2727.0,335542
2,2300,2691.0,336352
2,2305,2674.0,337162
2,2310,2609.0,337786
2,2315,2598.0,338781
2,2320,2565.0,339452
2,2325,2552.0,340350
2,2330,2561.0,341345
2,2335,2590.0,342243
2,2340,2580.0,343141
2,2345,2601.0,344136
2,2350,2593.0,345131
2,2355,2549.0,345981
2,2360,2518.0,346541
2,2365,2508.0,347391
2,2370,2450.0,347951
2,2375,2453.0,348946
2,2380,2462.0,349796
2,2385,2439.0,350670
2,2390,2462.0,351665
2,2395,2448.0,352490
2,2400,2504.0,353485
2,2405,2541.0,354480
2,2410,2595.0,355374
2,2415,2580.0,356115
2,2420,2635.0,357110
2,2425,2611.0,357686
2,2430,2594.0,358399
2,2435,2558.0,359249
2,2440,2544.0,360030
2,2445,2520.0,360767
2,2450,2565.0,361617
2,2455,2587.0,362467
2,2460,2632.0,363462
2,2465,2649.0,364457
2,2470,2682.0,365311
2,2475,2696.0,366306
2,2480,2726.0,367224
2,2485,2758.0,368219
2,2490,2765.0,369214
2,2495,2807.0,370209
2,2500,2825.0,371204
2,2505,2835.0,372199
2,2510,2858.0,373194
2,2515,2842.0,373698
2,2520,2867.0,374693
2,2525,2864.0,375193
2,2530,2912.0,376188
2,2535,2971.0,377183
2,2540,3050.0,378169
2,2545,3067.0,378999
2,2550,3053.0,379877
2,2555,3099.0,380859
2,2560,3068.0,381737
2,2565,3090.0,382682
2,2570,3121.0,383576
2,2575,3122.0,384571
2,2580,3097.0,385566
2,2585,3049.0,386174
2,2590,2960.0,386859
2,2595,2983.0,387811
2,2600,2956.0,388806
2,2605,2949.0,389801
2,2610,2901.0,390486
2,2615,2983.0,391072
2,2620,2959.0,391640
2,2625,3061.0,392259
2,2630,3019.0,392674
2,2635,2985.0,393102
2,2640,2953.0,393480
2,2645,2938.0,394084
2,2650,2947.0,394600
2,2655,2870.0,394878
2,2660,2856.0,395398
2,2665,2805.0,395887
2,2670,2774.0,396381
2,2675,2744.0,396941
2,2680,2760.0,397646
2,2685,2803.0,398351
2,2690,2864.0,398911
2,2695,2811.0,399616
2,2700,2817.0,400321
2,2705,2779.0,400861
2,2710,2806.0,401421
2,2715,2775.0,402126
2,2720,2767.0,402813
2,2725,2711.0,403566
2,2730,2723.0,404126
2,2735,2722.0,404666
2,2740,2706.0,405206
2,2745,2731.0,405829
2,2750,2675.0,406184
2,2755,2713.0,406869
2,2760,2713.0,407186
2,2765,2705.0,407726
2,2770,2680.0,408058
2,2775,2704.0,408667
2,2780,2678.0,409227
2,2785,2679.0,409849
2,2790,2701.0,410415
2,2795,2744.0,411057
2,2800,2801.0,411619
2,2805,2868.0,412089
2,2810,2897.0,412570
2,2815,2894.0,412940
2,2820,2896.0,413367
2,2825,2961.0,414092
2,2830,2992.0,414832
2,2835,3041.0,415583
2,2840,3050.0,416096
2,2845,3066.0,416895
2,2850,3134.0,417725
2,2855,3121.0,418197
2,2860,3185.0,418644
2,2865,3262.0,419367
2,2870,3328.0,419910
2,2875,3373.0,420436
2,2880,3436.0,420932
2,2885,3433.0,421590
2,2890,3457.0,422064
2,2895,3460.0,422539
2,2900,3440.0,423011
2,2905,3458.0,423645
2,2910,3494.0,424177
2,2915,3555.0,424814
2,2920,3594.0,425482
2,2925,3575.0,425955
2,2930,3619.0,426580
2,2935,3630.0,427053
2,2940,3684.0,427764
2,2945,3691.0,428309
2,2950,3701.0,429033
2,2955,3761.0,429629
2,2960,3746.0,430298
2,2965,3693.0,430714
2,2970,3723.0,431267
2,2975,3695.0,431744
2,2980,3684.0,432238
2,2985,3663.0,432599
2,2990,3664.0,433184
2,2995,3683.0,433874
2,3000,3662.0,434493
2,3005,3607.0,434982
2,3010,3565.0,435423
2,3015,3536.0,436083
2,3020,3512.0,436526
2,3025,3500.0,437171
2,3030,3392.0,437584
2,3035,3400.0,438253
2,3040,3416.0,438804
2,3045,3414.0,439478
2,3050,3444.0,440121
2,3055,3382.0,440747
2,3060,3355.0,441269
2,3065,3358.0,442005
2,3070,3318.0,442446
2,3075,3278.0,442947
2,3080,3278.0,443430
2,3085,3325.0,444007
2,3090,3321.0,444486
2,3095,3273.0,444891
2,3100,3294.0,445375
2,3105,3274.0,445709
2,3110,3310.0,446613
2,3115,3319.0,447435
2,3120,3363.0,448339
2,3125,3375.0,449128
2,3130,3481.0,450123
2,3135,3463.0,450892
2,3140,3438.0,451795
2,3145,3436.0,452559
2,3150,3389.0,453325
2,3155,3459.0,454127
2,3160,3485.0,454609
2,3165,3512.0,455285
2,3170,3529.0,455793
2,3175,3534.0,456180
2,3180,3501.0,456941
2,3185,3488.0,457793
2,3190,3461.0,458502
2,3195,3463.0,459037
2,3200,3446.0,459796
2,3205,3516.0,460698
2,3210,3492.0,461349
2,3215,3501.0,462321
2,3220,3450.0,463030
2,3225,3455.0,463923
2,3230,3462.0,464918
2,3235,3481.0,465913
2,3240,3483.0,466734
2,3245,3492.0,467729
2,3250,3471.0,468373
2,3255,3431.0,469183
2,3260,3404.0,469993
2,3265,3371.0,470754
2,3270,3357.0,471636
2,3275,3329.0,472283
2,3280,3357.0,473079
2,3285,3352.0,473909
2,3290,3393.0,474881
2,3295,3430.0,475843
2,3300,3434.0,476717
2,3305,3428.0,477712
2,3310,3426.0,478586
2,3315,3413.0,479432
2,3320,3428.0,480123
2,3325,3415.0,480914
2,3330,3419.0,481797
2,3335,3429.0,482543
2,3340,3447.0,483399
2,3345,3414.0,484209
2,3350,3464.0,484934
2,3355,3501.0,485725
2,3360,3568.0,486431
2,3365,3624.0,487266
2,3370,3659.0,488069
2,3375,3735.0,488700
2,3380,3757.0,489452
2,3385,3794.0,490279
2,3390,3799.0,491193
2,3395,3807.0,492023
2,3400,3836.0,492821
2,3405,3849.0,493496
2,3410,3814.0,494049
2,3415,3837.0,494696
2,3420,3876.0,495403
2,3425,3895.0,496117
2,3430,3899.0,496770
2,3435,3898.0,497502
2,3440,3837.0,498031
2,3445,3822.0,498585
2,3450,3840.0,499333
2,3455,3846.0,499956
2,3460,3776.0,500513
2,3465,3744.0,501281
2,3470,3741.0,502003
2,3475,3718.0,502549
2,3480,3717.0,503366
2,3485,3679.0,504093
2,3490,3676.0,505010
2,3495,3673.0,505830
2,3500,3674.0,506580
2,3505,3616.0,507152
2,3510,3683.0,507793
2,3515,3631.0,508408
2,3520,3608.0,509169
2,3525,3613.0,509818
2,3530,3596.0,510466
2,3535,3598.0,511084
2,3540,3626.0,511810
2,3545,3688.0,512582
2,3550,3687.0,513539
2,3555,3648.0,514248
2,3560,3721.0,514956
2,3565,3718.0,515577
2,3570,3715.0,516412
2,3575,3752.0,517056
2,3580,3753.0,517823
2,3585,3756.0,518390
2,3590,3705.0,518907
2,3595,3708.0,519621
2,3600,3710.0,520349
2,3605,3745.0,521015
2,3610,3722.0,521723
2,3615,3774.0,522472
2,3620,3789.0,523214
2,3625,3793.0,523905
2,3630,3770.0,524467
2,3635,3767.0,525186
2,3640,3778.0,525949
2,3645,3758.0,526562
2,3650,3705.0,526977
2,3655,3743.0,527528
2,3660,3741.0,528241
2,3665,3752.0,529043
2,3670,3758.0,529577
2,3675,3759.0,530140
2,3680,3763.0,530674
2,3685,3772.0,531138
2,3690,3795.0,531570
2,3695,3795.0,532181
2,3700,3795.0,532735
2,3705,3761.0,533153
2,3710,3781.0,533769
2,3715,3773.0,534393
2,3720,3782.0,534936
2,3725,3732.0,535481
2,3730,3769.0,536096
2,3735,3770.0,536632
2,3740,3793.0,537251
2,3745,3815.0,537939
2,3750,3873.0,538605
2,3755,3867.0,539448
2,3760,3868.0,540069
2,3765,3893.0,540587
2,3770,3894.0,541184
2,3775,3894.0,541723
2,3780,3893.0,542350
2,3785,3889.0,543107
2,3790,3923.0,543809
2,3795,3924.0,544528
2,3800,3889.0,545068
2,3805,3946.0,545612
2,3810,3927.0,546108
2,3815,3915.0,546709
2,3820,3886.0,547213
2,3825,3936.0,547748
2,3830,3917.0,548218
2,3835,3900.0,548865
2,3840,3904.0,549538
2,3845,3905.0,550070
2,3850,3866.0,550699
2,3855,3842.0,551327
2,3860,3813.0,552053
2,3865,3812.0,552920
2,3870,3809.0,553671
2,3875,3806.0,554497
2,3880,3755.0,555062
2,3885,3787.0,555644
2,3890,3749.0,556195
2,3895,3711.0,556706
2,3900,3676.0,557345
2,3905,3648.0,558055
2,3910,3669.0,558797
2,3915,3646.0,559426
2,3920,3648.0,560212
2,3925,3608.0,560883
2,3930,3600.0,561438
2,3935,3618.0,562092
2,3940,3615.0,562862
2,3945,3592.0,563521
2,3950,3631.0,564121
2,3955,3661.0,564708
2,3960,3633.0,565108
2,3965,3634.0,565731
2,3970,3632.0,566583
2,3975,3588.0,567025
2,3980,3640.0,567620
2,3985,3638.0,568306
2,3990,3676.0,568920
2,3995,3715.0,569649
2,4000,3779.0,570453
2,4005,3807.0,571110
2,4010,3769.0,571826
2,4015,3814.0,572408
2,4020,3809.0,572971
2,4025,3826.0,573548
2,4030,3797.0,574149
2,4035,3734.0,574632
2,4040,3715.0,575153
2,4045,3736.0,575953
2,4050,3731.0,576888
2,4055,3694.0,577545
2,4060,3748.0,578417
2,4065,3749.0,579170
2,4070,3755.0,579927
2,4075,3800.0,580649
2,4080,3798.0,581438
2,4085,3798.0,582060
2,4090,3799.0,582599
2,4095,3797.0,583203
2,4100,3803.0,583742
2,4105,3767.0,584178
2,4110,3806.0,584772
2,4115,3806.0,585388
2,4120,3810.0,585903
2,4125,3812.0,586443
2,4130,3869.0,587114
2,4135,3932.0,587721
2,4140,3951.0,588393
2,4145,3930.0,588945
2,4150,3893.0,589415
2,4155,3910.0,589930
2,4160,3892.0,590428
2,4165,3871.0,590965
2,4170,3826.0,591545
2,4175,3759.0,592101
2,4180,3737.0,592700
2,4185,3737.0,593324
2,4190,3715.0,593860
2,4195,3653.0,594279
2,4200,3591.0,594674
2,4205,3584.0,595133
2,4210,3500.0,595471
2,4215,3473.0,596084
2,4220,3459.0,596538
2,4225,3459.0,597057
2,4230,3439.0,597689
2,4235,3328.0,597939
2,4240,3240.0,598272
2,4245,3242.0,598887
2,4250,3276.0,599620
2,4255,3295.0,600406
2,4260,3317.0,601033
2,4265,3308.0,601596
2,4270,3300.0,602189
2,4275,3342.0,602691
2,4280,3365.0,603386
2,4285,3326.0,604119
2,4290,3347.0,604791
2,4295,3327.0,605132
2,4300,3387.0,605869
2,4305,3402.0,606384
2,4310,3485.0,607020
2,4315,3512.0,607639
2,4320,3554.0,608330
2,4325,3547.0,608884
2,4330,3548.0,609434
2,4335,3631.0,610056
2,4340,3673.0,610578
2,4345,3672.0,611118
2,4350,3680.0,611707
2,4355,3654.0,612207
2,4360,3653.0,612820
2,4365,3645.0,613380
2,4370,3665.0,613962
2,4375,3691.0,614608
2,4380,3691.0,615308
2,4385,3732.0,615999
2,4390,3712.0,616533
2,4395,3761.0,617029
2,4400,3709.0,617673
2,4405,3736.0,618283
2,4410,3709.0,618795
2,4415,3692.0,619342
2,4420,3670.0,620023
2,4425,3676.0,620556
2,4430,3676.0,621094
2,4435,3649.0,621613
2,4440,3631.0,622171
2,4445,3648.0,622863
2,4450,3605.0,623364
2,4455,3577.0,623788
2,4460,3556.0,624316
2,4465,3593.0,624968
2,4470,3624.0,625619
2,4475,3604.0,626173
2,4480,3532.0,626567
2,4485,3531.0,627247
2,4490,3530.0,627845
2,4495,3564.0,628529
2,4500,3619.0,629138
2,4505,3596.0,629721
2,4510,3598.0,630421
2,4515,3607.0,631092
2,4520,3629.0,631678
2,4525,3651.0,632277
2,4530,3670.0,632990
2,4535,3726.0,633505
2,4540,3792.0,634028
2,4545,3792.0,634729
2,4550,3779.0,635179
2,4555,3814.0,635700
2,4560,3772.0,636111
2,4565,3773.0,636717
2,4570,3769.0,637381
2,4575,3789.0,637952
2,4580,3861.0,638551
2,4585,3862.0,639142
2,4590,3828.0,639566
2,4595,3808.0,640032
2,4600,3786.0,640593
2,4605,3754.0,641040
2,4610,3758.0,641652
2,4615,3744.0,642253
2,4620,3716.0,642785
2,4625,3715.0,643403
2,4630,3687.0,644079
2,4635,3665.0,644649
2,4640,3666.0,645269
2,4645,3671.0,645847
2,4650,3724.0,646426
2,4655,3742.0,647108
2,4660,3783.0,647716
2,4665,3757.0,648364
2,4670,3763.0,648978
2,4675,3761.0,649663
2,4680,3760.0,650213
2,4685,3759.0,650773
2,4690,3815.0,651359
2,4695,3808.0,651879
2,4700,3807.0,652556
2,4705,3863.0,653151
2,4710,3862.0,653671
2,4715,3882.0,654393
2,4720,3887.0,654953
2,4725,3887.0,655603
2,4730,3917.0,656248
2,4735,3886.0,656743
2,4740,3843.0,657161
2,4745,3759.0,657500
2,4750,3729.0,658219
2,4755,3732.0,658759
2,4760,3713.0,659173
2,4765,3739.0,659690
2,4770,3737.0,660315
2,4775,3739.0,660912
2,4780,3705.0,661402
2,4785,3706.0,662053
2,4790,3704.0,662750
2,4795,3731.0,663371
2,4800,3721.0,663960
2,4805,3718.0,664586
2,4810,3740.0,665210
2,4815,3739.0,665845
2,4820,3761.0,666465
2,4825,3759.0,667106
2,4830,3759.0,667741
2,4835,3811.0,668314
2,4840,3853.0,668898
2,4845,3913.0,669524
2,4850,3945.0,670128
2,4855,3918.0,670636
2,4860,3957.0,671225
2,4865,3953.0,671888
2,4870,3953.0,672481
2,4875,3927.0,672981
2,4880,3942.0,673524
2,4885,3942.0,674116
2,4890,3923.0,674671
2,4895,3902.0,675233
2,4900,3935.0,675829
2,4905,3934.0,676529
2,4910,3907.0,677039
2,4915,3875.0,677538
2,4920,3875.0,678137
2,4925,3874.0,678844
2,4930,3874.0,679439
2,4935,3873.0,680038
2,4940,3872.0,680745
2,4945,3824.0,681150
2,4950,3803.0,681717
2,4955,3809.0,682290
2,4960,3810.0,682897
2,4965,3775.0,683609
2,4970,3776.0,684278
2,4975,3802.0,684958
2,4980,3820.0,685651
2,4985,3820.0,686264
2,4990,3840.0,686887
2,4995,3861.0,687486
2,5000,3860.0,688094
2,5005,3864.0,688691
2,5010,3892.0,689280
2,5015,3925.0,689911
2,5020,3926.0,690517
2,5025,3927.0,691174
2,5030,3919.0,691973
2,5035,3875.0,692667
2,5040,3877.0,693197
2,5045,3946.0,693822
2,5050,3968.0,694455
2,5055,3989.0,695088
2,5060,3985.0,696063
2,5065,4018.0,697032
2,5070,4016.0,697961
2,5075,4014.0,698713
2,5080,4015.0,699549
2,5085,4011.0,700542
2,5090,4001.0,701471
2,5095,3988.0,702466
2,5100,3984.0,703416
2,5105,3981.0,704361
2,5110,3976.0,705327
2,5115,3975.0,706127
2,5120,3973.0,706798
2,5125,3974.0,707484
2,5130,3978.0,708167
2,5135,3997.0,709005
2,5140,3994.0,709695
2,5145,3997.0,710343
2,5150,3949.0,710857
2,5155,3947.0,711576
2,5160,3950.0,712470
2,5165,3934.0,713140
2,5170,3906.0,713749
2,5175,3885.0,714386
2,5180,3881.0,715073
2,5185,3883.0,715768
2,5190,3893.0,716447
2,5195,3907.0,717066
2,5200,3910.0,717753
2,5205,3883.0,718304
2,5210,3883.0,719107
2,5215,3864.0,719661
2,5220,3864.0,720351
2,5225,3863.0,721046
2,5230,3864.0,721768
2,5235,3818.0,722159
2,5240,3784.0,722721
2,5245,3782.0,723405
2,5250,3808.0,723987
2,5255,3786.0,724634
2,5260,3788.0,725311
2,5265,3788.0,725999
2,5270,3818.0,726631
2,5275,3786.0,727105
2,5280,3792.0,727715
2,5285,3757.0,728290
2,5290,3707.0,728777
2,5295,3676.0,729374
2,5300,3677.0,730061
2,5305,3706.0,730653
2,5310,3710.0,731247
2,5315,3730.0,731851
2,5320,3732.0,732463
2,5325,3735.0,733055
2,5330,3738.0,733651
2,5335,3811.0,734286
2,5340,3817.0,735049
2,5345,3818.0,735682
2,5350,3838.0,736312
2,5355,3862.0,736913
2,5360,3863.0,737511
2,5365,3885.0,738115
2,5370,3849.0,738856
2,5375,3904.0,739564
2,5380,3903.0,740181
2,5385,3940.0,740786
2,5390,3990.0,741487
2,5395,4019.0,742146
2,5400,3987.0,742732
2,5405,3987.0,743431
2,5410,3955.0,744110
2,5415,3957.0,744728
2,5420,3956.0,745392
2,5425,3955.0,746011
2,5430,3954.0,746614
2,5435,3951.0,747315
2,5440,3982.0,747923
2,5445,3980.0,748599
2,5450,3980.0,749281
2,5455,3978.0,749956
2,5460,3978.0,750562
2,5465,3929.0,751007
2,5470,3964.0,751629
2,5475,3927.0,752237
2,5480,3900.0,752797
2,5485,3877.0,753422
2,5490,3876.0,754093
2,5495,3829.0,754535
2,5500,3862.0,755120
2,5505,3862.0,755712
2,5510,3893.0,756369
2,5515,3893.0,756975
2,5520,3894.0,757577
2,5525,3892.0,758264
2,5530,3893.0,758866
2,5535,3895.0,759482
2,5540,3857.0,759973
2,5545,3859.0,760568
2,5550,3849.0,761262
2,5555,3851.0,761903
2,5560,3794.0,762369
2,5565,3841.0,763066
2,5570,3807.0,763557
2,5575,3844.0,764162
2,5580,3871.0,764768
2,5585,3891.0,765520
2,5590,3893.0,766113
2,5595,3940.0,766787
2,5600,3940.0,767377
2,5605,3935.0,768053
2,5610,3910.0,768569
2,5615,3910.0,769172
2,5620,3910.0,769762
2,5625,3913.0,770355
2,5630,3907.0,771030
2,5635,3908.0,771632
2,5640,3946.0,772228
2,5645,3944.0,772983
2,5650,3955.0,773575
2,5655,3955.0,774171
2,5660,3976.0,774679
2,5665,3966.0,775246
2,5670,3999.0,775998
2,5675,3967.0,776666
2,5680,3968.0,777262
2,5685,3970.0,777849
2,5690,3970.0,778459
2,5695,3971.0,779054
2,5700,3970.0,779650
2,5705,3974.0,780348
2,5710,4000.0,780959
2,5715,3998.0,781549
2,5720,3972.0,782071
2,5725,3971.0,782668
2,5730,3977.0,783277
2,5735,3955.0,783974
2,5740,3951.0,784719
2,5745,3949.0,785559
2,5750,3948.0,786154
2,5755,3947.0,786749
2,5760,3948.0,787342
2,5765,3959.0,787925
2,5770,3960.0,788596
2,5775,3993.0,789171
2,5780,3990.0,789923
2,5785,3988.0,790603
2,5790,3988.0,791196
2,5795,3989.0,791805
2,5800,3989.0,792398
2,5805,3991.0,792982
2,5810,3990.0,793655
2,5815,3964.0,794167
2,5820,3990.0,794771
2,5825,3991.0,795363
2,5830,3991.0,795968
2,5835,4012.0,796650
2,5840,4016.0,797237
2,5845,4019.0,797868
2,5850,3986.0,798375
2,5855,3984.0,799038
2,5860,4018.0,799647
2,5865,3983.0,800138
2,5870,3985.0,800730
2,5875,3955.0,801400
2,5880,3955.0,802029
2,5885,3957.0,802707
2,5890,3920.0,803199
2,5895,3918.0,803789
2,5900,3890.0,804313
2,5905,3890.0,804916
2,5910,3891.0,805529
2,5915,3918.0,806127
2,5920,3917.0,806756
2,5925,3917.0,807358
2,5930,3917.0,807967
2,5935,3907.0,808523
2,5940,3905.0,809147
2,5945,3886.0,809703
2,5950,3919.0,810332
2,5955,3921.0,810964
2,5960,3922.0,811555
2,5965,3958.0,812164
2,5970,3935.0,812781
2,5975,3963.0,813433
2,5980,3933.0,814055
2,5985,3909.0,814813
2,5990,3943.0,815570
2,5995,3945.0,816182
2,6000,3953.0,816710
2,6005,3953.0,817301
2,6010,3931.0,817907
2,6015,3932.0,818498
2,6020,3905.0,819016
2,6025,3905.0,819607
2,6030,3903.0,820202
2,6035,3854.0,820636
2,6040,3856.0,821232
2,6045,3856.0,821762
2,6050,3858.0,822372
2,6055,3825.0,823119
2,6060,3824.0,823801
2,6065,3822.0,824421
2,6070,3829.0,824977
2,6075,3829.0,825688
2,6080,3849.0,826247
2,6085,3853.0,826814
2,6090,3854.0,827453
2,6095,3850.0,828059
2,6100,3870.0,828668
2,6105,3870.0,829259
2,6110,3833.0,829668
2,6115,3832.0,830260
2,6120,3859.0,830868
2,6125,3837.0,831476
2,6130,3836.0,832153
2,6135,3896.0,832741
2,6140,3896.0,833361
2,6145,3917.0,833958
2,6150,3916.0,834548
2,6155,3928.0,835093
2,6160,3866.0,835491
2,6165,3791.0,835855
2,6170,3806.0,836536
2,6175,3805.0,837139
2,6180,3787.0,837635
2,6185,3808.0,838230
2,6190,3789.0,838757
2,6195,3792.0,839352
2,6200,3782.0,840115
2,6205,3781.0,840708
2,6210,3841.0,841301
2,6215,3842.0,841891
2,6220,3841.0,842487
2,6225,3862.0,843126
2,6230,3864.0,843719
2,6235,3820.0,844188
2,6240,3820.0,844783
2,6245,3780.0,845264
2,6250,3781.0,845853
2,6255,3802.0,846536
2,6260,3861.0,847290
2,6265,3938.0,847864
2,6270,3916.0,848437
2,6275,3897.0,848974
2,6280,3928.0,849565
2,6285,3927.0,850152
2,6290,3905.0,850626
2,6295,3829.0,850981
2,6300,3819.0,851504
2,6305,3800.0,852182
2,6310,3800.0,852776
2,6315,3751.0,853231
2,6320,3729.0,853836
2,6325,3708.0,854360
2,6330,3682.0,854902
2,6335,3689.0,855468
2,6340,3688.0,856063
2,6345,3641.0,856586
2,6350,3641.0,857180
2,6355,3600.0,857638
2,6360,3602.0,858257
2,6365,3578.0,858864
2,6370,3575.0,859502
2,6375,3597.0,860121
2,6380,3571.0,860644
2,6385,3572.0,861275
2,6390,3594.0,861818
2,6395,3669.0,862406
2,6400,3689.0,863024
2,6405,3674.0,863514
2,6410,3674.0,864117
2,6415,3702.0,864724
2,6420,3703.0,865268
2,6425,3682.0,865832
2,6430,3708.0,866442
2,6435,3744.0,867121
2,6440,3730.0,867798
2,6445,3788.0,868394
2,6450,3787.0,869001
2,6455,3824.0,869712
2,6460,3826.0,870310
2,6465,3849.0,870973
2,6470,3858.0,871661
2,6475,3857.0,872250
2,6480,3882.0,872839
2,6485,3845.0,873319
2,6490,3865.0,873910
2,6495,3838.0,874420
2,6500,3838.0,875091
2,6505,3824.0,875535
2,6510,3822.0,876134
2,6515,3806.0,876641
2,6520,3771.0,877106
2,6525,3812.0,877685
2,6530,3813.0,878278
2,6535,3814.0,878883
2,6540,3828.0,879582
2,6545,3855.0,880196
2,6550,3840.0,880825
2,6555,3810.0,881595
2,6560,3810.0,882201
2,6565,3810.0,882805
2,6570,3826.0,883434
2,6575,3827.0,884037
2,6580,3828.0,884635
2,6585,3863.0,885241
2,6590,3863.0,885839
2,6595,3891.0,886433
2,6600,3892.0,887028
2,6605,3919.0,887572
2,6610,3920.0,888256
2,6615,3957.0,888866
2,6620,4015.0,889478
2,6625,4015.0,890102
2,6630,4013.0,890782
2,6635,4013.0,891368
2,6640,4008.0,892122
2,6645,3968.0,892585
2,6650,3956.0,893100
2,6655,3989.0,893711
2,6660,3959.0,894308
2,6665,3959.0,894988
2,6670,3958.0,895601
2,6675,3957.0,896196
2,6680,3955.0,896948
2,6685,3956.0,897542
2,6690,3956.0,898156
2,6695,3937.0,898703
2,6700,3929.0,899389
2,6705,3949.0,899983
2,6710,3948.0,900596
2,6715,3948.0,901298
2,6720,3917.0,901918
2,6725,3916.0,902626
2,6730,3917.0,903248
2,6735,3887.0,903946
2,6740,3892.0,904523
2,6745,3921.0,905114
2,6750,3945.0,905791
2,6755,3945.0,906392
2,6760,3975.0,906970
2,6765,3972.0,907717
2,6770,3973.0,908304
2,6775,3974.0,908884
2,6780,3975.0,909467
2,6785,3975.0,910076
2,6790,3950.0,910860
2,6795,3970.0,911443
2,6800,3976.0,912149
2,6805,3978.0,912751
2,6810,3953.0,913262
2,6815,3922.0,913794
2,6820,3930.0,914395
2,6825,3890.0,914879
2,6830,3807.0,915210
2,6835,3815.0,915755
2,6840,3795.0,916323
2,6845,3807.0,916984
2,6850,3811.0,917584
2,6855,3811.0,918223
2,6860,3809.0,918928
2,6865,3813.0,919524
2,6870,3814.0,920115
2,6875,3745.0,920533
2,6880,3716.0,921140
2,6885,3694.0,921820
2,6890,3718.0,922592
2,6895,3718.0,923281
2,6900,3720.0,923962
2,6905,3697.0,924587
2,6910,3696.0,925099
2,6915,3723.0,925766
2,6920,3743.0,926559
2,6925,3786.0,927185
2,6930,3870.0,927946
2,6935,3869.0,928490
2,6940,3868.0,929017
2,6945,3846.0,929534
2,6950,3845.0,930141
2,6955,3847.0,930765
2,6960,3790.0,931222
2,6965,3788.0,931827
2,6970,3759.0,932588
2,6975,3826.0,933262
2,6980,3856.0,933880
2,6985,3844.0,934651
2,6990,3845.0,935239
2,6995,3842.0,935910
2,7000,3808.0,936590
2,7005,3829.0,937170
2,7010,3834.0,937702
2,7015,3832.0,938369
2,7020,3835.0,938953
2,7025,3834.0,939577
2,7030,3812.0,940102
2,7035,3829.0,940771
2,7040,3851.0,941392
2,7045,3846.0,941896
2,7050,3847.0,942496
2,7055,3814.0,943081
2,7060,3845.0,943592
2,7065,3847.0,944190
2,7070,3875.0,944782
2,7075,3855.0,945358
2,7080,3854.0,945957
2,7085,3889.0,946555
2,7090,3860.0,947080
2,7095,3835.0,947595
2,7100,3868.0,948185
2,7105,3841.0,948777
2,7110,3864.0,949425
2,7115,3870.0,950026
2,7120,3869.0,950661
2,7125,3845.0,951342
2,7130,3864.0,951983
2,7135,3869.0,952584
2,7140,3866.0,953259
2,7145,3871.0,953789
2,7150,3871.0,954378
2,7155,3882.0,954911
2,7160,3910.0,955500
2,7165,3908.0,956121
2,7170,3908.0,956713
2,7175,3928.0,957316
2,7180,3929.0,957919
2,7185,3928.0,958510
2,7190,3956.0,959104
2,7195,3982.0,959746
2,7200,3981.0,960425
2,7205,4008.0,961030
2,7210,4007.0,961714
2,7215,4007.0,962309
2,7220,4006.0,962957
2,7225,4030.0,963621
2,7230,4033.0,964218
2,7235,4031.0,964951
2,7240,4034.0,965599
2,7245,4057.0,966229
2,7250,4057.0,966841
2,7255,4052.0,967377
2,7260,4051.0,968006
2,7265,4037.0,968691
2,7270,4038.0,969285
2,7275,4008.0,969968
2,7280,4006.0,970585
2,7285,4006.0,971174
2,7290,3944.0,971580
2,7295,3882.0,971992
2,7300,3863.0,972573
2,7305,3862.0,973249
2,7310,3839.0,973869
2,7315,3803.0,974388
2,7320,3804.0,974987
2,7325,3804.0,975579
2,7330,3770.0,976194
2,7335,3772.0,976810
2,7340,3750.0,977360
2,7345,3749.0,977943
2,7350,3749.0,978527
2,7355,3753.0,979136
2,7360,3750.0,979756
2,7365,3762.0,980437
2,7370,3761.0,981032
2,7375,3749.0,981507
2,7380,3751.0,982101
2,7385,3737.0,982776
2,7390,3773.0,983288
2,7395,3808.0,983873
2,7400,3829.0,984467
2,7405,3816.0,985131
2,7410,3839.0,985716
2,7415,3849.0,986268
2,7420,3848.0,986874
2,7425,3847.0,987537
2,7430,3817.0,987955
2,7435,3817.0,988595
2,7440,3815.0,989118
2,7445,3787.0,989706
2,7450,3742.0,990249
2,7455,3701.0,990650
2,7460,3701.0,991319
2,7465,3704.0,991969
2,7470,3661.0,992592
2,7475,3705.0,993184
2,7480,3704.0,993782
2,7485,3717.0,994456
2,7490,3723.0,994986
2,7495,3723.0,995653
2,7500,3721.0,996328
2,7505,3736.0,996939
2,7510,3661.0,997445
2,7515,3687.0,998047
2,7520,3688.0,998628
2,7525,3689.0,999257
2,7530,3753.0,999863
2,7535,3753.0,1000474
2,7540,3750.0,1001017
2,7545,3777.0,1001625
2,7550,3777.0,1002138
2,7555,3812.0,1002696
2,7560,3816.0,1003302
2,7565,3814.0,1003956
2,7570,3854.0,1004621
2,7575,3852.0,1005225
2,7580,3828.0,1005900
2,7585,3829.0,1006576
2,7590,3851.0,1007194
2,7595,3851.0,1007720
2,7600,3821.0,1008227
2,7605,3821.0,1008808
2,7610,3896.0,1009472
2,7615,3893.0,1010159
2,7620,3893.0,1010753
2,7625,3892.0,1011420
2,7630,3891.0,1012026
2,7635,3892.0,1012631
2,7640,3918.0,1013247
2,7645,3910.0,1013958
2,7650,3953.0,1014614
2,7655,3980.0,1015232
2,7660,3979.0,1015879
2,7665,3961.0,1016425
2,7670,3963.0,1017048
2,7675,3963.0,1017654
2,7680,3982.0,1018439
2,7685,3982.0,1019063
2,7690,3928.0,1019736
2,7695,3956.0,1020342
2,7700,3988.0,1020959
2,7705,3988.0,1021589
2,7710,3988.0,1022188
2,7715,3990.0,1022828
2,7720,3991.0,1023429
2,7725,3993.0,1024052
2,7730,3994.0,1024684
2,7735,3994.0,1025276
2,7740,3995.0,1025860
2,7745,4004.0,1026438
2,7750,4003.0,1027105
2,7755,4004.0,1027686
2,7760,4003.0,1028360
2,7765,4018.0,1029025
2,7770,4015.0,1029734
2,7775,4017.0,1030347
2,7780,4021.0,1030995
2,7785,4020.0,1031589
2,7790,4072.0,1032172
2,7795,4073.0,1032758
2,7800,4072.0,1033436
2,7805,4044.0,1034006
2,7810,4044.0,1034744
2,7815,4044.0,1035338
2,7820,4043.0,1035974
2,7825,4042.0,1036586
2,7830,4039.0,1037337
2,7835,4034.0,1038090
2,7840,4001.0,1038574
2,7845,3979.0,1039171
2,7850,3940.0,1039631
2,7855,3901.0,1040278
2,7860,3903.0,1040857
2,7865,3909.0,1041434
2,7870,3885.0,1041939
2,7875,3885.0,1042524
2,7880,3887.0,1043122
2,7885,3889.0,1043737
2,7890,3891.0,1044359
2,7895,3890.0,1044949
2,7900,3890.0,1045538
2,7905,3896.0,1046086
2,7910,3877.0,1046618
2,7915,3875.0,1047320
2,7920,3876.0,1047944
2,7925,3876.0,1048669
2,7930,3878.0,1049422
2,7935,3882.0,1050019
2,7940,3914.0,1050627
2,7945,3937.0,1051225
2,7950,3979.0,1051827
2,7955,4018.0,1052442
2,7960,4018.0,1053069
2,7965,4017.0,1053686
2,7970,4040.0,1054446
2,7975,4040.0,1055036
2,7980,4035.0,1055787
2,7985,4035.0,1056419
2,7990,4032.0,1057074
2,7995,4014.0,1057778
2,8000,4014.0,1058391
2,8005,4024.0,1059062
2,8010,4044.0,1059674
2,8015,4047.0,1060285
2,8020,4046.0,1060892
2,8025,3994.0,1061334
2,8030,3975.0,1061931
2,8035,3976.0,1062524
2,8040,3977.0,1063111
2,8045,3976.0,1063716
2,8050,3976.0,1064339
2,8055,3975.0,1064936
2,8060,3974.0,1065568
2,8065,3972.0,1066238
2,8070,3978.0,1066831
2,8075,3976.0,1067504
2,8080,3981.0,1068133
2,8085,3981.0,1068750
2,8090,3983.0,1069351
2,8095,4002.0,1069965
2,8100,4001.0,1070631
2,8105,4013.0,1071259
2,8110,4013.0,1071869
2,8115,4006.0,1072652
2,8120,4004.0,1073285
2,8125,4054.0,1074147
2,8130,4069.0,1074905
2,8135,4067.0,1075535
2,8140,3998.0,1075923
2,8145,3973.0,1076605
2,8150,3931.0,1077072
2,8155,3886.0,1077748
2,8160,3820.0,1078231
2,8165,3801.0,1078858
2,8170,3800.0,1079468
2,8175,3801.0,1080107
2,8180,3798.0,1080729
2,8185,3769.0,1081240
2,8190,3770.0,1081868
2,8195,3706.0,1082296
2,8200,3685.0,1082906
2,8205,3623.0,1083311
2,8210,3600.0,1083907
2,8215,3600.0,1084648
2,8220,3558.0,1085396
2,8225,3540.0,1085931
2,8230,3545.0,1086517
2,8235,3524.0,1087056
2,8240,3530.0,1087461
2,8245,3556.0,1088065
2,8250,3574.0,1088671
2,8255,3584.0,1089188
2,8260,3650.0,1089856
2,8265,3671.0,1090469
2,8270,3671.0,1091071
2,8275,3627.0,1091597
2,8280,3586.0,1092057
2,8285,3524.0,1092356
2,8290,3425.0,1092648
2,8295,3447.0,1093118
2,8300,3427.0,1093590
2,8305,3490.0,1094214
2,8310,3490.0,1094827
2,8315,3480.0,1095395
2,8320,3511.0,1096022
2,8325,3532.0,1096691
2,8330,3532.0,1097292
2,8335,3545.0,1098045
2,8340,3605.0,1098745
2,8345,3605.0,1099345
2,8350,3628.0,1099933
2,8355,3624.0,1100391
2,8360,3625.0,1101017
2,8365,3625.0,1101604
2,8370,3626.0,1102219
2,8375,3667.0,1102925
2,8380,3710.0,1103555
2,8385,3799.0,1104168
2,8390,3861.0,1104674
2,8395,3903.0,1105307
2,8400,3917.0,1105897
2,8405,3893.0,1106499
2,8410,3915.0,1107116
2,8415,3910.0,1107651
2,8420,3924.0,1108226
2,8425,3924.0,1108825
2,8430,3876.0,1109267
2,8435,3836.0,1109786
2,8440,3802.0,1110266
2,8445,3802.0,1110855
2,8450,3799.0,1111473
2,8455,3812.0,1111989
2,8460,3811.0,1112568
2,8465,3797.0,1113240
2,8470,3795.0,1113939
2,8475,3776.0,1114577
2,8480,3777.0,1115167
2,8485,3779.0,1115772
2,8490,3794.0,1116303
2,8495,3753.0,1116791
2,8500,3712.0,1117337
2,8505,3735.0,1118070
2,8510,3736.0,1118654
2,8515,3718.0,1119121
2,8520,3698.0,1119636
2,8525,3661.0,1120153
2,8530,3707.0,1120778
2,8535,3683.0,1121256
2,8540,3688.0,1121936
2,8545,3648.0,1122400
2,8550,3591.0,1122904
2,8555,3597.0,1123426
2,8560,3596.0,1124092
2,8565,3595.0,1124797
2,8570,3553.0,1125383
2,8575,3520.0,1125887
2,8580,3483.0,1126386
2,8585,3463.0,1126905
2,8590,3430.0,1127436
2,8595,3415.0,1127850
2,8600,3453.0,1128515
2,8605,3451.0,1129192
2,8610,3423.0,1129695
2,8615,3427.0,1130181
2,8620,3426.0,1130724
2,8625,3463.0,1131308
2,8630,3465.0,1131886
2,8635,3496.0,1132435
2,8640,3508.0,1132961
2,8645,3525.0,1133535
2,8650,3562.0,1134159
2,8655,3533.0,1134850
2,8660,3535.0,1135429
2,8665,3499.0,1135873
2,8670,3506.0,1136355
2,8675,3541.0,1136886
2,8680,3578.0,1137559
2,8685,3597.0,1138230
2,8690,3630.0,1138774
2,8695,3665.0,1139322
2,8700,3636.0,1139729
2,8705,3582.0,1140153
2,8710,3610.0,1140748
2,8715,3610.0,1141327
2,8720,3608.0,1141946
2,8725,3579.0,1142486
2,8730,3567.0,1143215
2,8735,3589.0,1143841
2,8740,3606.0,1144547
2,8745,3601.0,1145125
2,8750,3624.0,1145739
2,8755,3673.0,1146483
2,8760,3652.0,1147023
2,8765,3666.0,1147494
2,8770,3682.0,1148019
2,8775,3662.0,1148475
2,8780,3621.0,1148944
2,8785,3602.0,1149466
2,8790,3548.0,1149986
2,8795,3568.0,1150572
2,8800,3588.0,1151032
2,8805,3645.0,1151631
2,8810,3595.0,1152089
2,8815,3611.0,1152621
2,8820,3633.0,1153215
2,8825,3661.0,1153876
2,8830,3632.0,1154331
2,8835,3625.0,1154850
2,8840,3600.0,1155352
2,8845,3626.0,1155920
2,8850,3626.0,1156527
2,8855,3605.0,1157130
2,8860,3605.0,1157667
2,8865,3594.0,1158110
2,8870,3607.0,1158861
2,8875,3648.0,1159458
2,8880,3642.0,1159899
2,8885,3639.0,1160501
2,8890,3655.0,1160929
2,8895,3656.0,1161509
2,8900,3697.0,1162089
2,8905,3670.0,1162702
2,8910,3719.0,1163310
2,8915,3738.0,1163909
2,8920,3718.0,1164449
2,8925,3694.0,1165120
2,8930,3734.0,1165763
2,8935,3761.0,1166445
2,8940,3787.0,1167035
2,8945,3769.0,1167570
2,8950,3767.0,1168192
2,8955,3788.0,1168853
2,8960,3808.0,1169436
2,8965,3855.0,1170055
2,8970,3863.0,1170644
2,8975,3827.0,1171169
2,8980,3854.0,1171688
2,8985,3827.0,1172229
2,8990,3851.0,1172893
2,8995,3792.0,1173479
2,9000,3792.0,1174128
2,9005,3781.0,1174590
2,9010,3782.0,1175237
2,9015,3763.0,1175779
2,9020,3784.0,1176387
2,9025,3787.0,1176966
2,9030,3787.0,1177574
2,9035,3771.0,1178258
2,9040,3743.0,1178897
2,9045,3759.0,1179492
2,9050,3762.0,1180076
2,9055,3761.0,1180667
2,9060,3713.0,1181108
2,9065,3713.0,1181763
2,9070,3691.0,1182306
2,9075,3723.0,1182972
2,9080,3743.0,1183556
2,9085,3697.0,1183883
2,9090,3703.0,1184402
2,9095,3733.0,1184934
2,9100,3732.0,1185512
2,9105,3749.0,1186033
2,9110,3746.0,1186693
2,9115,3745.0,1187234
2,9120,3704.0,1187701
2,9125,3725.0,1188287
2,9130,3690.0,1188802
2,9135,3707.0,1189371
2,9140,3737.0,1189959
2,9145,3692.0,1190409
2,9150,3684.0,1191085
2,9155,3687.0,1191680
2,9160,3656.0,1192205
2,9165,3657.0,1192812
2,9170,3639.0,1193289
2,9175,3640.0,1193993
2,9180,3620.0,1194535
2,9185,3679.0,1195072
2,9190,3709.0,1195655
2,9195,3737.0,1196286
2,9200,3702.0,1196778
2,9205,3688.0,1197289
2,9210,3672.0,1197924
2,9215,3692.0,1198520
2,9220,3733.0,1199095
2,9225,3706.0,1199641
2,9230,3741.0,1200257
2,9235,3737.0,1200934
2,9240,3713.0,1201453
2,9245,3762.0,1202054
2,9250,3722.0,1202512
2,9255,3701.0,1203028
2,9260,3752.0,1203520
2,9265,3736.0,1204245
2,9270,3755.0,1204786
2,9275,3737.0,1205538
2,9280,3716.0,1206089
2,9285,3733.0,1206619
2,9290,3694.0,1207201
2,9295,3695.0,1207781
2,9300,3695.0,1208262
2,9305,3710.0,1208803
2,9310,3728.0,1209489
2,9315,3728.0,1210166
2,9320,3727.0,1210752
2,9325,3735.0,1211273
2,9330,3736.0,1211853
2,9335,3740.0,1212437
2,9340,3715.0,1212888
2,9345,3714.0,1213468
2,9350,3762.0,1214093
2,9355,3763.0,1214632
2,9360,3792.0,1215231
2,9365,3787.0,1215853
2,9370,3808.0,1216436
2,9375,3810.0,1217099
2,9380,3850.0,1217755
2,9385,3868.0,1218358
2,9390,3879.0,1218854
2,9395,3879.0,1219443
2,9400,3895.0,1220025
2,9405,3915.0,1220636
2,9410,3859.0,1221053
2,9415,3843.0,1221595
2,9420,3842.0,1222273
2,9425,3840.0,1222879
2,9430,3839.0,1223517
2,9435,3821.0,1224063
2,9440,3869.0,1224659
2,9445,3850.0,1225242
2,9450,3779.0,1225635
2,9455,3778.0,1226168
2,9460,3722.0,1226695
2,9465,3743.0,1227408
2,9470,3716.0,1227924
2,9475,3674.0,1228353
2,9480,3633.0,1228834
2,9485,3590.0,1229401
2,9490,3568.0,1230037
2,9495,3568.0,1230668
2,9500,3579.0,1231338
2,9505,3530.0,1231786
2,9510,3586.0,1232365
2,9515,3563.0,1232856
2,9520,3510.0,1233306
2,9525,3530.0,1234011
2,9530,3530.0,1234600
2,9535,3521.0,1235134
2,9540,3477.0,1235791
2,9545,3492.0,1236535
2,9550,3539.0,1237318
2,9555,3559.0,1237931
2,9560,3615.0,1238601
2,9565,3616.0,1239240
2,9570,3639.0,1239818
2,9575,3680.0,1240375
2,9580,3707.0,1241042
2,9585,3675.0,1241568
2,9590,3712.0,1242240
2,9595,3663.0,1242849
2,9600,3636.0,1243347
2,9605,3685.0,1243928
2,9610,3686.0,1244525
2,9615,3697.0,1245025
2,9620,3748.0,1245690
2,9625,3662.0,1246155
2,9630,3643.0,1246678
2,9635,3668.0,1247253
2,9640,3638.0,1247609
2,9645,3641.0,1248222
2,9650,3661.0,1248881
2,9655,3640.0,1249486
2,9660,3639.0,1250077
2,9665,3618.0,1250662
2,9670,3593.0,1251171
2,9675,3578.0,1251661
2,9680,3570.0,1252333
2,9685,3591.0,1252761
2,9690,3604.0,1253364
2,9695,3589.0,1253791
2,9700,3623.0,1254385
2,9705,3563.0,1254884
2,9710,3501.0,1255335
2,9715,3509.0,1255973
2,9720,3486.0,1256593
2,9725,3551.0,1257199
2,9730,3550.0,1257730
2,9735,3531.0,1258273
2,9740,3585.0,1258805
2,9745,3585.0,1259387
2,9750,3554.0,1260094
2,9755,3512.0,1260497
2,9760,3492.0,1261055
2,9765,3511.0,1261739
2,9770,3537.0,1262322
2,9775,3550.0,1262942
2,9780,3528.0,1263634
2,9785,3578.0,1264551
2,9790,3550.0,1265236
2,9795,3594.0,1265823
2,9800,3541.0,1266348
2,9805,3598.0,1267065
2,9810,3660.0,1267668
2,9815,3661.0,1268228
2,9820,3622.0,1268786
2,9825,3577.0,1269183
2,9830,3596.0,1269877
2,9835,3565.0,1270488
2,9840,3546.0,1271085
2,9845,3463.0,1271471
2,9850,3497.0,1272126
2,9855,3540.0,1272706
2,9860,3508.0,1273347
2,9865,3460.0,1273866
2,9870,3463.0,1274488
2,9875,3485.0,1275086
2,9880,3489.0,1275602
2,9885,3473.0,1276205
2,9890,3473.0,1276737
2,9895,3457.0,1277231
2,9900,3482.0,1277814
2,9905,3484.0,1278398
2,9910,3454.0,1278979
2,9915,3454.0,1279503
2,9920,3519.0,1280088
2,9925,3546.0,1280557
2,9930,3528.0,1281077
2,9935,3550.0,1281907
2,9940,3549.0,1282375
2,9945,3576.0,1282881
2,9950,3557.0,1283391
2,9955,3547.0,1283900
2,9960,3560.0,1284357
2,9965,3610.0,1284961
2,9970,3608.0,1285540
2,9975,3606.0,1286216
2,9980,3646.0,1286828
2,9985,3646.0,1287468
2,9990,3654.0,1287988
2,9995,3687.0,1288660
2,10000,3717.0,1289303
2,10005,3694.0,1289838
2,10010,3723.0,1290461
2,10015,3668.0,1290825
2,10020,3669.0,1291412
2,10025,3681.0,1291914
2,10030,3686.0,1292474
2,10035,3668.0,1293005
2,10040,3668.0,1293503
2,10045,3724.0,1294112
2,10050,3742.0,1294807
2,10055,3728.0,1295259
2,10060,3668.0,1295565
2,10065,3668.0,1296194
2,10070,3610.0,1296702
2,10075,3592.0,1297224
2,10080,3573.0,1297760
2,10085,3560.0,1298244
2,10090,3573.0,1298903
2,10095,3556.0,1299426
2,10100,3533.0,1299984
2,10105,3556.0,1300579
2,10110,3557.0,1301211
2,10115,3627.0,1301896
2,10120,3626.0,1302508
2,10125,3591.0,1302954
2,10130,3541.0,1303371
2,10135,3589.0,1303979
2,10140,3566.0,1304379
2,10145,3546.0,1304990
2,10150,3546.0,1305609
2,10155,3527.0,1306098
2,10160,3622.0,1306767
2,10165,3621.0,1307357
2,10170,3680.0,1308030
2,10175,3672.0,1308531
2,10180,3672.0,1309054
2,10185,3705.0,1309682
2,10190,3711.0,1310272
2,10195,3701.0,1310883
2,10200,3703.0,1311424
2,10205,3673.0,1312130
2,10210,3665.0,1312927
2,10215,3606.0,1313329
2,10220,3565.0,1313968
2,10225,3608.0,1314491
2,10230,3669.0,1315172
2,10235,3627.0,1315654
2,10240,3659.0,1316405
2,10245,3640.0,1316882
2,10250,3596.0,1317501
2,10255,3657.0,1318221
2,10260,3657.0,1318967
2,10265,3635.0,1319657
2,10270,3600.0,1320164
2,10275,3600.0,1320700
2,10280,3584.0,1321192
2,10285,3536.0,1321799
2,10290,3537.0,1322386
2,10295,3546.0,1322922
2,10300,3567.0,1323514
2,10305,3598.0,1324259
2,10310,3556.0,1324785
2,10315,3591.0,1325294
2,10320,3591.0,1325924
2,10325,3591.0,1326447
2,10330,3503.0,1326786
2,10335,3541.0,1327537
2,10340,3571.0,1328197
2,10345,3581.0,1328778
2,10350,3626.0,1329411
2,10355,3600.0,1329984
2,10360,3571.0,1330569
2,10365,3593.0,1331223
2,10370,3629.0,1331834
2,10375,3657.0,1332419
2,10380,3690.0,1333033
2,10385,3667.0,1333415
2,10390,3666.0,1333997
2,10395,3686.0,1334580
2,10400,3686.0,1335164
2,10405,3684.0,1335847
2,10410,3733.0,1336438
2,10415,3706.0,1336861
2,10420,3726.0,1337463
2,10425,3746.0,1338090
2,10430,3797.0,1338640
2,10435,3781.0,1339190
2,10440,3738.0,1339634
2,10445,3710.0,1340181
2,10450,3651.0,1340633
2,10455,3657.0,1341240
2,10460,3670.0,1341860
2,10465,3632.0,1342338
2,10470,3612.0,1342865
2,10475,3549.0,1343259
2,10480,3551.0,1343885
2,10485,3575.0,1344341
2,10490,3574.0,1344932
2,10495,3547.0,1345469
2,10500,3545.0,1346060
2,10505,3482.0,1346581
2,10510,3461.0,1347449
2,10515,3516.0,1348058
2,10520,3537.0,1348679
2,10525,3497.0,1349147
2,10530,3503.0,1349683
2,10535,3523.0,1350263
2,10540,3548.0,1350785
2,10545,3607.0,1351386
2,10550,3666.0,1352052
2,10555,3653.0,1352534
2,10560,3674.0,1353181
2,10565,3690.0,1353868
2,10570,3680.0,1354465
2,10575,3723.0,1355010
2,10580,3702.0,1355607
2,10585,3708.0,1356058
2,10590,3690.0,1356577
2,10595,3698.0,1357105
2,10600,3699.0,1357684
2,10605,3723.0,1358144
2,10610,3721.0,1358884
2,10615,3699.0,1359572
2,10620,3699.0,1360154
2,10625,3720.0,1360752
2,10630,3755.0,1361448
2,10635,3734.0,1361977
2,10640,3753.0,1362557
2,10645,3712.0,1363021
2,10650,3709.0,1363702
2,10655,3709.0,1364179
2,10660,3707.0,1364754
2,10665,3708.0,1365285
2,10670,3702.0,1365761
2,10675,3686.0,1366268
2,10680,3707.0,1366920
2,10685,3748.0,1367577
2,10690,3768.0,1368195
2,10695,3747.0,1368683
2,10700,3706.0,1369147
2,10705,3703.0,1369622
2,10710,3727.0,1370201
2,10715,3728.0,1370770
2,10720,3691.0,1371427
2,10725,3617.0,1371740
2,10730,3588.0,1372236
2,10735,3609.0,1372832
2,10740,3609.0,1373432
2,10745,3601.0,1373868
2,10750,3512.0,1374180
2,10755,3524.0,1374846
2,10760,3525.0,1375431
2,10765,3507.0,1375890
2,10770,3519.0,1376452
2,10775,3555.0,1377037
2,10780,3530.0,1377554
2,10785,3531.0,1378159
2,10790,3491.0,1378625
2,10795,3515.0,1379208
2,10800,3553.0,1379962
2,10805,3576.0,1380524
2,10810,3508.0,1380906
2,10815,3508.0,1381509
2,10820,3524.0,1382113
2,10825,3596.0,1382648
2,10830,3597.0,1383230
2,10835,3533.0,1383630
2,10840,3489.0,1384086
2,10845,3514.0,1384690
2,10850,3590.0,1385311
2,10855,3613.0,1385924
2,10860,3558.0,1386341
2,10865,3577.0,1386878
2,10870,3580.0,1387485
2,10875,3538.0,1387946
2,10880,3479.0,1388281
2,10885,3479.0,1388856
2,10890,3470.0,1389298
2,10895,3466.0,1389838
2,10900,3449.0,1390438
2,10905,3440.0,1390950
2,10910,3507.0,1391618
2,10915,3509.0,1392146
2,10920,3530.0,1392775
2,10925,3487.0,1393259
2,10930,3475.0,1393779
2,10935,3519.0,1394376
2,10940,3535.0,1394894
2,10945,3538.0,1395418
2,10950,3531.0,1396021
2,10955,3502.0,1396612
2,10960,3557.0,1397248
2,10965,3558.0,1397801
2,10970,3541.0,1398404
2,10975,3547.0,1398884
2,10980,3609.0,1399578
2,10985,3573.0,1400088
2,10990,3599.0,1400692
2,10995,3570.0,1401217
2,11000,3535.0,1401722
2,11005,3543.0,1402333
2,11010,3544.0,1402941
2,11015,3544.0,1403458
2,11020,3544.0,1404057
2,11025,3580.0,1404618
2,11030,3590.0,1405121
2,11035,3590.0,1405640
2,11040,3598.0,1406185
2,11045,3595.0,1406820
2,11050,3590.0,1407343
2,11055,3620.0,1407956
2,11060,3581.0,1408416
2,11065,3562.0,1408988
2,11070,3600.0,1409564
2,11075,3636.0,1410140
2,11080,3659.0,1410728
2,11085,3658.0,1411306
2,11090,3681.0,1411896
2,11095,3729.0,1412518
2,11100,3785.0,1413110
2,11105,3806.0,1413775
2,11110,3805.0,1414353
2,11115,3823.0,1414952
2,11120,3759.0,1415435
2,11125,3720.0,1415851
2,11130,3701.0,1416290
2,11135,3718.0,1416955
2,11140,3719.0,1417520
2,11145,3728.0,1418179
2,11150,3708.0,1418647
2,11155,3705.0,1419317
2,11160,3689.0,1419760
2,11165,3693.0,1420240
2,11170,3667.0,1420842
2,11175,3666.0,1421449
2,11180,3664.0,1422116
2,11185,3611.0,1422457
2,11190,3570.0,1422915
2,11195,3572.0,1423517
2,11200,3495.0,1423878
2,11205,3496.0,1424546
2,11210,3497.0,1425135
2,11215,3497.0,1425756
2,11220,3541.0,1426357
2,11225,3581.0,1426857
2,11230,3594.0,1427335
2,11235,3595.0,1427968
2,11240,3575.0,1428429
2,11245,3526.0,1428823
2,11250,3479.0,1429150
2,11255,3481.0,1429756
2,11260,3537.0,1430410
2,11265,3532.0,1430868
2,11270,3537.0,1431472
2,11275,3537.0,1432087
2,11280,3539.0,1432669
2,11285,3589.0,1433139
2,11290,3583.0,1433865
2,11295,3527.0,1434284
2,11300,3604.0,1434867
2,11305,3603.0,1435458
2,11310,3601.0,1436031
2,11315,3583.0,1436546
2,11320,3562.0,1437020
2,11325,3576.0,1437580
2,11330,3561.0,1438171
2,11335,3538.0,1438704
2,11340,3577.0,1439374
2,11345,3640.0,1439973
2,11350,3678.0,1440472
2,11355,3679.0,1441056
2,11360,3606.0,1441441
2,11365,3606.0,1441895
2,11370,3606.0,1442413
2,11375,3607.0,1442997
2,11380,3583.0,1443596
2,11385,3568.0,1444019
2,11390,3615.0,1444595
2,11395,3623.0,1445037
2,11400,3586.0,1445544
2,11405,3558.0,1446048
2,11410,3501.0,1446553
2,11415,3519.0,1447136
2,11420,3561.0,1447725
2,11425,3516.0,1448284
2,11430,3528.0,1448850
2,11435,3518.0,1449324
2,11440,3463.0,1449804
2,11445,3444.0,1450333
2,11450,3461.0,1450877
2,11455,3432.0,1451459
2,11460,3484.0,1451978
2,11465,3522.0,1452645
2,11470,3541.0,1453241
2,11475,3540.0,1453817
2,11480,3563.0,1454481
2,11485,3598.0,1454999
2,11490,3597.0,1455588
2,11495,3644.0,1456171
2,11500,3661.0,1456695
2,11505,3669.0,1457223
2,11510,3680.0,1457672
2,11515,3646.0,1458152
2,11520,3645.0,1458727
2,11525,3703.0,1459308
2,11530,3741.0,1460005
2,11535,3775.0,1460587
2,11540,3831.0,1461201
2,11545,3851.0,1461805
2,11550,3889.0,1462479
2,11555,3897.0,1463092
2,11560,3918.0,1463671
2,11565,3901.0,1464196
2,11570,3868.0,1464686
2,11575,3869.0,1465305
2,11580,3848.0,1465876
2,11585,3864.0,1466664
2,11590,3829.0,1467138
2,11595,3794.0,1467620
2,11600,3794.0,1468142
2,11605,3795.0,1468664
2,11610,3843.0,1469242
2,11615,3839.0,1469700
2,11620,3840.0,1470279
2,11625,3818.0,1470946
2,11630,3799.0,1471476
2,11635,3780.0,1471996
2,11640,3779.0,1472600
2,11645,3751.0,1473100
2,11650,3733.0,1473703
2,11655,3718.0,1474186
2,11660,3655.0,1474594
2,11665,3671.0,1475312
2,11670,3706.0,1475900
2,11675,3685.0,1476427
2,11680,3706.0,1477029
2,11685,3687.0,1477665
2,11690,3722.0,1478257
2,11695,3729.0,1478880
2,11700,3748.0,1479602
2,11705,3747.0,1480120
2,11710,3747.0,1480726
2,11715,3782.0,1481629
2,11720,3737.0,1482081
2,11725,3759.0,1482700
2,11730,3748.0,1483298
2,11735,3733.0,1483777
2,11740,3711.0,1484436
2,11745,3717.0,1485008
2,11750,3734.0,1485681
2,11755,3706.0,1486153
2,11760,3749.0,1486673
2,11765,3662.0,1486994
2,11770,3662.0,1487658
2,11775,3662.0,1488227
2,11780,3635.0,1488872
2,11785,3659.0,1489491
2,11790,3639.0,1490010
2,11795,3666.0,1490711
2,11800,3667.0,1491358
2,11805,3652.0,1492026
2,11810,3611.0,1492604
2,11815,3595.0,1493165
2,11820,3640.0,1493806
2,11825,3638.0,1494493
2,11830,3632.0,1495072
2,11835,3667.0,1495673
2,11840,3649.0,1496152
2,11845,3631.0,1496618
2,11850,3607.0,1497143
2,11855,3643.0,1497705
2,11860,3640.0,1498340
2,11865,3710.0,1498897
2,11870,3709.0,1499536
