% time spent exploring,episodes,mean 100 episode reward,steps
99,5,275.0,481
99,10,466.7,1285
99,15,485.7,1881
99,20,484.2,2438
99,25,458.3,3049
98,30,462.1,3739
98,35,452.9,4568
98,40,469.2,5376
98,45,465.9,5820
97,50,477.6,6617
97,55,481.5,7299
97,60,484.7,8165
97,65,521.9,8800
96,70,515.9,9667
96,75,510.8,10447
96,80,517.7,11130
96,85,522.6,12042
95,90,513.5,12618
95,95,516.0,13001
95,100,504.0,13285
95,105,528.0,13910
95,110,521.0,14616
94,115,543.0,15513
94,120,545.0,16141
94,125,552.0,16807
94,130,567.0,17497
94,135,568.0,18115
93,140,577.0,18771
93,145,590.0,19685
93,150,595.0,20388
93,155,597.0,21017
92,160,614.0,21803
92,165,595.0,22298
92,170,595.0,22730
92,175,599.0,23283
92,180,601.0,23969
91,185,596.0,24588
91,190,612.0,25288
91,195,612.0,25712
91,200,636.0,26271
91,205,611.0,26587
91,210,629.0,27300
90,215,609.0,27899
90,220,610.0,28664
90,225,618.0,29199
90,230,600.0,29723
90,235,623.0,30576
89,240,604.0,30992
89,245,589.0,31450
89,250,580.0,31861
89,255,582.0,32503
89,260,581.0,33114
88,265,593.0,33703
88,270,613.0,34454
88,275,606.0,34939
88,280,603.0,35524
88,285,623.0,36092
88,290,626.0,36641
87,295,632.0,37371
87,300,634.0,37882
87,305,637.0,38353
87,310,637.0,38935
87,315,645.0,39511
86,320,662.0,40265
86,325,681.0,41070
86,330,710.0,41705
86,335,706.0,42511
85,340,719.0,42990
85,345,741.0,43696
85,350,756.0,44380
85,355,762.0,44895
85,360,761.0,45537
84,365,770.0,46237
84,370,767.0,46748
84,375,789.0,47235
84,380,805.0,47840
84,385,786.0,48050
84,390,786.0,48682
83,395,788.0,49163
83,400,791.0,49785
83,405,818.0,50541
83,410,790.0,50747
83,415,807.0,51536
82,420,819.0,52425
82,425,800.0,53118
82,430,785.0,53544
82,435,800.0,54304
82,440,824.0,54968
81,445,823.0,55586
81,450,827.0,56219
81,455,834.0,56786
81,460,839.0,57598
80,465,835.0,58353
80,470,843.0,59033
80,475,857.0,59879
80,480,858.0,60781
79,485,876.0,61463
79,490,885.0,62170
79,495,888.0,62918
79,500,873.0,63291
79,505,878.0,63958
78,510,918.0,64489
78,515,929.0,65484
78,520,927.0,66145
78,525,929.0,66449
78,530,938.0,67069
77,535,927.0,67783
77,540,935.0,68595
77,545,929.0,69171
77,550,931.0,69852
76,555,942.0,70466
76,560,940.0,71140
76,565,957.0,71882
76,570,962.0,72581
76,575,941.0,73088
75,580,940.0,73764
75,585,923.0,74124
75,590,931.0,74705
75,595,935.0,75365
75,600,966.0,76144
74,605,959.0,76783
74,610,936.0,77176
74,615,931.0,77836
74,620,921.0,78313
74,625,938.0,78704
74,630,923.0,79107
73,635,930.0,79672
73,640,906.0,80027
73,645,907.0,80409
73,650,904.0,80913
73,655,902.0,81448
73,660,928.0,82294
72,665,899.0,82677
72,670,894.0,83222
72,675,901.0,83700
72,680,909.0,84415
72,685,920.0,84912
72,690,919.0,85624
71,695,934.0,86203
71,700,914.0,86593
71,705,912.0,87175
71,710,954.0,88004
71,715,941.0,88536
70,720,943.0,89057
70,725,934.0,89424
70,730,948.0,89829
70,735,965.0,90577
70,740,963.0,91001
70,745,968.0,91434
69,750,976.0,92022
69,755,969.0,92526
69,760,945.0,93058
69,765,959.0,93535
69,770,964.0,94122
69,775,993.0,94752
68,780,1005.0,95545
68,785,1027.0,96144
68,790,1026.0,96720
68,795,1010.0,97123
68,800,1010.0,97527
67,805,1022.0,98085
67,810,1012.0,98832
67,815,1027.0,99496
67,820,1059.0,100356
67,825,1059.0,100834
66,830,1051.0,101169
66,835,1028.0,101528
66,840,1047.0,102072
66,845,1078.0,102795
66,850,1068.0,103198
66,855,1083.0,103750
65,860,1105.0,104568
65,865,1108.0,104995
65,870,1111.0,105587
65,875,1110.0,106275
65,880,1111.0,107036
64,885,1131.0,107802
64,890,1133.0,108247
64,895,1153.0,108831
64,900,1168.0,109326
64,905,1173.0,109922
63,910,1174.0,110486
63,915,1184.0,111400
63,920,1162.0,111855
63,925,1155.0,112182
63,930,1191.0,113007
62,935,1220.0,113669
62,940,1221.0,114110
62,945,1207.0,114670
62,950,1203.0,115039
62,955,1200.0,115611
62,960,1198.0,116263
61,965,1236.0,117137
61,970,1254.0,117874
61,975,1255.0,118529
61,980,1252.0,118994
60,985,1255.0,119989
60,990,1277.0,120801
60,995,1270.0,121312
60,1000,1288.0,122067
59,1005,1292.0,122677
59,1010,1295.0,123325
59,1015,1286.0,124009
59,1020,1268.0,124350
59,1025,1310.0,125177
58,1030,1312.0,125905
58,1035,1314.0,126625
58,1040,1305.0,126998
58,1045,1310.0,127429
58,1050,1353.0,128286
57,1055,1381.0,129003
57,1060,1355.0,129227
57,1065,1323.0,130016
57,1070,1315.0,130643
57,1075,1299.0,131223
56,1080,1297.0,131863
56,1085,1300.0,132572
56,1090,1293.0,133158
56,1095,1309.0,133806
56,1100,1304.0,134413
55,1105,1306.0,135078
55,1110,1315.0,135674
55,1115,1320.0,136393
55,1120,1338.0,136842
55,1125,1328.0,137533
54,1130,1344.0,138371
54,1135,1338.0,139035
54,1140,1374.0,139865
54,1145,1401.0,140687
53,1150,1395.0,141398
53,1155,1375.0,141978
53,1160,1415.0,142683
53,1165,1427.0,143337
52,1170,1441.0,144173
52,1175,1445.0,144725
52,1180,1467.0,145443
52,1185,1449.0,146033
52,1190,1437.0,146571
51,1195,1451.0,147553
51,1200,1444.0,148101
51,1205,1442.0,148571
51,1210,1472.0,149566
50,1215,1481.0,150174
50,1220,1490.0,150762
50,1225,1507.0,151686
50,1230,1480.0,152211
50,1235,1499.0,152913
49,1240,1467.0,153288
49,1245,1460.0,154032
49,1250,1437.0,154455
49,1255,1435.0,154991
49,1260,1438.0,155728
48,1265,1444.0,156390
48,1270,1441.0,157079
48,1275,1446.0,157625
48,1280,1419.0,158172
48,1285,1409.0,158850
47,1290,1439.0,159604
47,1295,1461.0,160502
47,1300,1491.0,161144
47,1305,1506.0,161823
46,1310,1488.0,162521
46,1315,1499.0,163412
46,1320,1507.0,163907
46,1325,1514.0,164650
46,1330,1511.0,165081
45,1335,1484.0,165591
45,1340,1503.0,166291
45,1345,1486.0,166798
45,1350,1518.0,167329
45,1355,1551.0,168096
44,1360,1573.0,169091
44,1365,1561.0,169492
44,1370,1579.0,170265
44,1375,1611.0,171074
43,1380,1652.0,171900
43,1385,1685.0,172680
43,1390,1716.0,173675
43,1395,1691.0,174324
42,1400,1656.0,174721
42,1405,1640.0,175066
42,1410,1658.0,176056
42,1415,1662.0,176793
42,1420,1655.0,177260
41,1425,1632.0,177899
41,1430,1639.0,178314
41,1435,1678.0,179128
41,1440,1703.0,180123
41,1445,1715.0,180604
40,1450,1718.0,181216
40,1455,1696.0,181806
40,1460,1678.0,182660
40,1465,1703.0,183367
39,1470,1697.0,184176
39,1475,1691.0,184895
39,1480,1676.0,185524
39,1485,1620.0,185686
39,1490,1567.0,186320
38,1495,1564.0,186983
38,1500,1607.0,187677
38,1505,1627.0,188237
38,1510,1610.0,188968
38,1515,1624.0,189729
37,1520,1675.0,190639
37,1525,1684.0,191204
37,1530,1698.0,191718
37,1535,1713.0,192676
36,1540,1692.0,193335
36,1545,1711.0,194070
36,1550,1701.0,194684
36,1555,1708.0,195258
35,1560,1722.0,195953
35,1565,1748.0,196829
35,1570,1735.0,197492
35,1575,1741.0,198299
34,1580,1770.0,199135
34,1585,1835.0,200051
34,1590,1897.0,201046
33,1595,1925.0,202041
33,1600,1910.0,202526
33,1605,1947.0,203316
33,1610,1958.0,204103
33,1615,1986.0,205019
32,1620,1963.0,205649
32,1625,1965.0,206165
32,1630,1990.0,207057
32,1635,1974.0,207862
31,1640,1996.0,208502
31,1645,1999.0,209279
31,1650,2029.0,210064
31,1655,2046.0,210773
30,1660,2054.0,211522
30,1665,2038.0,212332
30,1670,2050.0,212729
30,1675,2035.0,213301
30,1680,2042.0,214059
29,1685,2012.0,214549
29,1690,1998.0,215459
29,1695,2009.0,216371
29,1700,2029.0,217068
28,1705,2007.0,217877
28,1710,2008.0,218713
28,1715,1984.0,219491
28,1720,2008.0,220292
27,1725,2016.0,220811
27,1730,2020.0,221555
27,1735,2048.0,222438
27,1740,2056.0,223234
26,1745,2053.0,223899
26,1750,2051.0,224636
26,1755,2066.0,225470
26,1760,2044.0,225985
25,1765,2067.0,226808
25,1770,2081.0,227458
25,1775,2110.0,228301
25,1780,2107.0,229139
24,1785,2123.0,229788
24,1790,2117.0,230745
24,1795,2104.0,231518
24,1800,2098.0,232388
23,1805,2091.0,233075
23,1810,2094.0,233781
23,1815,2093.0,234623
23,1820,2070.0,235348
22,1825,2071.0,235962
22,1830,2051.0,236621
22,1835,2033.0,237368
22,1840,2047.0,238115
21,1845,2082.0,239026
21,1850,2089.0,239748
21,1855,2074.0,240419
21,1860,2105.0,241263
20,1865,2124.0,242205
20,1870,2128.0,243023
20,1875,2134.0,243849
20,1880,2145.0,244648
19,1885,2199.0,245643
19,1890,2202.0,246202
19,1895,2215.0,246934
19,1900,2236.0,247675
18,1905,2246.0,248249
18,1910,2257.0,248942
18,1915,2250.0,249606
18,1920,2244.0,250033
18,1925,2281.0,250764
17,1930,2334.0,251744
17,1935,2347.0,252484
17,1940,2357.0,253466
16,1945,2357.0,254461
16,1950,2379.0,255398
16,1955,2406.0,256393
15,1960,2421.0,257273
15,1965,2413.0,258074
15,1970,2442.0,258967
15,1975,2454.0,259807
14,1980,2444.0,260608
14,1985,2424.0,261603
14,1990,2456.0,262598
13,1995,2467.0,263427
13,2000,2469.0,264271
13,2005,2513.0,265266
13,2010,2574.0,266226
12,2015,2623.0,267221
12,2020,2667.0,268157
12,2025,2688.0,268980
11,2030,2669.0,269975
11,2035,2698.0,270881
11,2040,2702.0,271793
10,2045,2709.0,272788
10,2050,2714.0,273783
10,2055,2741.0,274599
10,2060,2754.0,275439
9,2065,2776.0,276434
9,2070,2762.0,277244
9,2075,2760.0,277890
8,2080,2777.0,278716
8,2085,2795.0,279674
8,2090,2806.0,280669
8,2095,2787.0,281189
7,2100,2818.0,281951
7,2105,2824.0,282935
7,2110,2772.0,283685
7,2115,2757.0,284549
6,2120,2782.0,285397
6,2125,2813.0,286313
6,2130,2846.0,287308
5,2135,2812.0,287944
5,2140,2776.0,288444
5,2145,2783.0,289439
5,2150,2800.0,290146
5,2155,2797.0,290816
4,2160,2793.0,291517
4,2165,2762.0,292174
4,2170,2767.0,292643
4,2175,2781.0,293210
4,2180,2792.0,293874
3,2185,2759.0,294263
3,2190,2749.0,295103
3,2195,2780.0,295939
3,2200,2757.0,296581
2,2205,2745.0,297157
2,2210,2767.0,297835
2,2215,2764.0,298520
2,2220,2745.0,299348
2,2225,2722.0,300002
2,2230,2714.0,300829
2,2235,2757.0,301464
2,2240,2815.0,302113
2,2245,2835.0,303034
2,2250,2853.0,304029
2,2255,2884.0,305024
2,2260,2893.0,305753
2,2265,2943.0,306614
2,2270,2987.0,307415
2,2275,3021.0,308183
2,2280,3054.0,309093
2,2285,3090.0,309695
2,2290,3131.0,310432
2,2295,3159.0,311427
2,2300,3201.0,312219
2,2305,3214.0,313039
2,2310,3257.0,313917
2,2315,3305.0,314912
2,2320,3324.0,315773
2,2325,3330.0,316637
2,2330,3361.0,317540
2,2335,3376.0,318402
2,2340,3372.0,319240
2,2345,3368.0,319970
2,2350,3370.0,320670
2,2355,3368.0,321362
2,2360,3336.0,322019
2,2365,3348.0,322897
2,2370,3328.0,323712
2,2375,3343.0,324572
2,2380,3341.0,325357
2,2385,3362.0,326052
2,2390,3323.0,326620
2,2395,3325.0,327289
2,2400,3319.0,327950
2,2405,3366.0,328792
2,2410,3367.0,329616
2,2415,3350.0,330348
2,2420,3366.0,331279
2,2425,3398.0,332041
2,2430,3370.0,332924
2,2435,3371.0,333624
2,2440,3406.0,334492
2,2445,3408.0,335195
2,2450,3435.0,335821
2,2455,3430.0,336395
2,2460,3509.0,337114
2,2465,3504.0,337860
2,2470,3519.0,338552
2,2475,3526.0,339233
2,2480,3498.0,339668
2,2485,3537.0,340331
2,2490,3570.0,341182
2,2495,3568.0,342177
2,2500,3560.0,342905
2,2505,3553.0,343625
2,2510,3548.0,344336
2,2515,3543.0,345117
2,2520,3532.0,345860
2,2525,3504.0,346768
2,2530,3480.0,347376
2,2535,3467.0,347951
2,2540,3484.0,348527
2,2545,3435.0,348845
2,2550,3398.0,349480
2,2555,3348.0,350014
2,2560,3269.0,350469
2,2565,3276.0,351116
2,2570,3289.0,351849
2,2575,3280.0,352675
2,2580,3328.0,353417
2,2585,3308.0,354165
2,2590,3335.0,354768
2,2595,3327.0,355394
2,2600,3366.0,355995
2,2605,3365.0,356748
2,2610,3351.0,357656
2,2615,3385.0,358302
2,2620,3409.0,359194
2,2625,3405.0,359986
2,2630,3414.0,360479
2,2635,3443.0,361232
2,2640,3434.0,361817
2,2645,3523.0,362497
2,2650,3546.0,363383
2,2655,3599.0,363879
2,2660,3655.0,364687
2,2665,3639.0,365430
2,2670,3614.0,366093
2,2675,3606.0,366854
2,2680,3589.0,367521
2,2685,3577.0,368224
2,2690,3526.0,368692
2,2695,3516.0,369421
2,2700,3495.0,370136
2,2705,3456.0,370782
2,2710,3487.0,371358
2,2715,3466.0,372190
2,2720,3450.0,372791
2,2725,3455.0,373470
2,2730,3475.0,374465
2,2735,3467.0,375149
2,2740,3451.0,375948
2,2745,3423.0,376442
2,2750,3420.0,377080
2,2755,3439.0,377903
2,2760,3424.0,378566
2,2765,3439.0,379390
2,2770,3451.0,380302
2,2775,3470.0,380956
2,2780,3470.0,381768
2,2785,3488.0,382508
2,2790,3480.0,383336
2,2795,3507.0,384253
2,2800,3506.0,384845
2,2805,3536.0,385563
2,2810,3500.0,386202
2,2815,3507.0,386902
2,2820,3476.0,387459
2,2825,3471.0,388298
2,2830,3490.0,389023
2,2835,3501.0,389685
2,2840,3477.0,390432
2,2845,3449.0,391151
2,2850,3407.0,392037
2,2855,3391.0,392761
2,2860,3392.0,393658
2,2865,3370.0,394369
2,2870,3372.0,395002
2,2875,3335.0,395706
2,2880,3343.0,396531
2,2885,3337.0,397303
2,2890,3352.0,397871
2,2895,3339.0,398841
2,2900,3356.0,399507
2,2905,3370.0,400168
2,2910,3384.0,400900
2,2915,3376.0,401716
2,2920,3441.0,402285
2,2925,3473.0,402911
2,2930,3484.0,403661
2,2935,3460.0,404347
2,2940,3486.0,405087
2,2945,3477.0,405795
2,2950,3530.0,406448
2,2955,3532.0,407263
2,2960,3567.0,407922
2,2965,3592.0,408549
2,2970,3587.0,409104
2,2975,3602.0,409965
2,2980,3590.0,410511
2,2985,3581.0,411239
2,2990,3579.0,412098
2,2995,3574.0,412832
2,3000,3571.0,413664
2,3005,3561.0,414487
2,3010,3553.0,415117
2,3015,3541.0,415677
2,3020,3540.0,416282
2,3025,3551.0,416941
2,3030,3509.0,417511
2,3035,3514.0,418345
2,3040,3512.0,418963
2,3045,3554.0,419684
2,3050,3539.0,420360
2,3055,3537.0,420968
2,3060,3500.0,421778
2,3065,3487.0,422619
2,3070,3483.0,423323
2,3075,3459.0,424019
2,3080,3446.0,425013
2,3085,3445.0,425817
2,3090,3473.0,426564
2,3095,3502.0,427261
2,3100,3502.0,427896
2,3105,3500.0,428449
2,3110,3532.0,429035
2,3115,3561.0,429667
2,3120,3551.0,430376
2,3125,3542.0,431054
2,3130,3585.0,431750
2,3135,3604.0,432424
2,3140,3623.0,433069
2,3145,3638.0,433694
2,3150,3661.0,434330
2,3155,3679.0,434996
2,3160,3725.0,435588
2,3165,3687.0,436089
2,3170,3697.0,436869
2,3175,3750.0,437466
2,3180,3785.0,438085
2,3185,3809.0,438777
2,3190,3825.0,439380
2,3195,3831.0,440085
2,3200,3844.0,440789
2,3205,3828.0,441595
2,3210,3821.0,442264
2,3215,3830.0,442876
2,3220,3815.0,443494
2,3225,3824.0,444157
2,3230,3832.0,444834
2,3235,3815.0,445544
2,3240,3808.0,446263
2,3245,3789.0,446915
2,3250,3789.0,447500
2,3255,3749.0,448130
2,3260,3726.0,448795
2,3265,3767.0,449578
2,3270,3779.0,450259
2,3275,3771.0,450932
2,3280,3760.0,451665
2,3285,3758.0,452345
2,3290,3748.0,453178
2,3295,3731.0,453690
2,3300,3725.0,454386
2,3305,3749.0,454968
2,3310,3757.0,455555
2,3315,3751.0,456233
2,3320,3759.0,456882
2,3325,3759.0,457548
2,3330,3746.0,458328
2,3335,3755.0,458904
2,3340,3760.0,459666
2,3345,3763.0,460428
2,3350,3745.0,461124
2,3355,3782.0,461743
2,3360,3801.0,462392
2,3365,3825.0,463031
2,3370,3848.0,463794
2,3375,3857.0,464400
2,3380,3873.0,465007
2,3385,3883.0,465606
2,3390,3893.0,466314
2,3395,3920.0,466924
2,3400,3873.0,467523
2,3405,3867.0,468232
2,3410,3867.0,468820
2,3415,3879.0,469415
2,3420,3878.0,470165
2,3425,3854.0,470939
2,3430,3858.0,471653
2,3435,3875.0,472240
2,3440,3859.0,472984
2,3445,3875.0,473612
2,3450,3894.0,474203
2,3455,3887.0,475001
2,3460,3881.0,475557
2,3465,3859.0,476278
2,3470,3847.0,476956
2,3475,3833.0,477548
2,3480,3822.0,478162
2,3485,3794.0,478926
2,3490,3770.0,479652
2,3495,3769.0,480315
2,3500,3826.0,480945
2,3505,3844.0,481649
2,3510,3844.0,482242
2,3515,3845.0,482853
2,3520,3851.0,483415
2,3525,3838.0,484107
2,3530,3834.0,484687
2,3535,3825.0,485350
2,3540,3819.0,485852
2,3545,3798.0,486589
2,3550,3794.0,487258
2,3555,3811.0,487911
2,3560,3806.0,488691
2,3565,3810.0,489390
2,3570,3809.0,490050
2,3575,3813.0,490801
2,3580,3811.0,491498
2,3585,3832.0,492067
2,3590,3855.0,492738
2,3595,3854.0,493461
2,3600,3835.0,494255
2,3605,3770.0,494644
2,3610,3759.0,495314
2,3615,3747.0,495985
2,3620,3744.0,496682
2,3625,3782.0,497264
2,3630,3757.0,497950
2,3635,3755.0,498514
2,3640,3767.0,499205
2,3645,3794.0,499798
2,3650,3797.0,500459
2,3655,3795.0,501084
2,3660,3779.0,501686
2,3665,3764.0,502527
2,3670,3771.0,503158
2,3675,3771.0,503828
2,3680,3770.0,504529
2,3685,3754.0,505308
2,3690,3756.0,505909
2,3695,3758.0,506503
2,3700,3776.0,507172
2,3705,3828.0,507871
2,3710,3813.0,508540
2,3715,3825.0,509202
2,3720,3830.0,509953
2,3725,3828.0,510552
2,3730,3857.0,511382
2,3735,3857.0,512101
2,3740,3865.0,512854
2,3745,3843.0,513551
2,3750,3844.0,514133
2,3755,3819.0,514748
2,3760,3822.0,515495
2,3765,3838.0,516203
2,3770,3838.0,516900
2,3775,3817.0,517736
2,3780,3809.0,518489
2,3785,3833.0,519080
2,3790,3792.0,519617
2,3795,3791.0,520202
2,3800,3792.0,520877
2,3805,3806.0,521551
2,3810,3832.0,522157
2,3815,3834.0,522750
2,3820,3844.0,523410
2,3825,3834.0,524075
2,3830,3792.0,524654
2,3835,3800.0,525312
2,3840,3811.0,525905
2,3845,3836.0,526493
2,3850,3807.0,527322
2,3855,3790.0,527957
2,3860,3754.0,528558
2,3865,3773.0,529147
2,3870,3781.0,529732
2,3875,3799.0,530398
2,3880,3812.0,531028
2,3885,3809.0,531651
2,3890,3835.0,532284
2,3895,3827.0,532962
2,3900,3827.0,533594
2,3905,3820.0,534259
2,3910,3811.0,534925
2,3915,3808.0,535599
2,3920,3809.0,536187
2,3925,3820.0,536855
2,3930,3843.0,537442
2,3935,3843.0,538094
2,3940,3843.0,538686
2,3945,3783.0,539344
2,3950,3811.0,539933
2,3955,3856.0,540513
2,3960,3889.0,541052
2,3965,3872.0,541827
2,3970,3871.0,542439
2,3975,3819.0,542978
2,3980,3822.0,543646
2,3985,3815.0,544326
2,3990,3831.0,544917
2,3995,3824.0,545586
2,4000,3814.0,546341
2,4005,3796.0,547125
2,4010,3788.0,547875
2,4015,3788.0,548469
2,4020,3783.0,549223
2,4025,3780.0,549891
2,4030,3807.0,550557
2,4035,3802.0,551216
2,4040,3772.0,551725
2,4045,3810.0,552416
2,4050,3794.0,553205
2,4055,3780.0,553753
2,4060,3803.0,554419
2,4065,3819.0,555002
2,4070,3821.0,555605
2,4075,3886.0,556192
2,4080,3880.0,556938
2,4085,3890.0,557610
2,4090,3873.0,558176
2,4095,3888.0,558842
2,4100,3870.0,559461
2,4105,3886.0,560209
2,4110,3890.0,560881
2,4115,3892.0,561466
2,4120,3852.0,562052
2,4125,3833.0,562807
2,4130,3843.0,563398
2,4135,3840.0,564101
2,4140,3863.0,564869
2,4145,3885.0,565461
2,4150,3900.0,566054
2,4155,3905.0,566720
2,4160,3904.0,567394
2,4165,3901.0,568058
2,4170,3885.0,568744
2,4175,3871.0,569368
2,4180,3883.0,570120
2,4185,3884.0,570717
2,4190,3901.0,571295
2,4195,3875.0,571908
2,4200,3904.0,572494
2,4205,3903.0,573170
2,4210,3912.0,573759
2,4215,3911.0,574347
2,4220,3956.0,574939
2,4225,3978.0,575536
2,4230,3974.0,576205
2,4235,3974.0,576983
2,4240,3979.0,577653
2,4245,3963.0,578328
2,4250,3948.0,579076
2,4255,3943.0,579842
2,4260,3929.0,580468
2,4265,3933.0,581064
2,4270,3936.0,581698
2,4275,3939.0,582358
2,4280,3918.0,583013
2,4285,3879.0,583687
2,4290,3839.0,584273
2,4295,3865.0,584862
2,4300,3863.0,585434
2,4305,3866.0,586109
2,4310,3847.0,586884
2,4315,3847.0,587558
2,4320,3847.0,588169
2,4325,3848.0,588770
2,4330,3851.0,589433
2,4335,3852.0,590193
2,4340,3834.0,590945
2,4345,3842.0,591619
2,4350,3859.0,592213
2,4355,3872.0,592824
2,4360,3887.0,593501
2,4365,3827.0,594005
2,4370,3840.0,594603
2,4375,3847.0,595272
2,4380,3850.0,595815
2,4385,3889.0,596419
2,4390,3929.0,597001
2,4395,3921.0,597652
2,4400,3921.0,598324
2,4405,3924.0,598898
2,4410,3947.0,599539
2,4415,3940.0,600238
2,4420,3930.0,600927
2,4425,3914.0,601566
2,4430,3879.0,602122
2,4435,3860.0,602869
2,4440,3862.0,603540
2,4445,3870.0,604183
2,4450,3870.0,604789
2,4455,3860.0,605363
2,4460,3830.0,605948
2,4465,3886.0,606648
2,4470,3866.0,607271
2,4475,3861.0,607941
2,4480,3879.0,608553
2,4485,3845.0,609128
2,4490,3844.0,609718
2,4495,3844.0,610298
2,4500,3828.0,610965
2,4505,3834.0,611549
2,4510,3833.0,612154
2,4515,3821.0,612694
2,4520,3802.0,613202
2,4525,3817.0,613806
2,4530,3816.0,614432
2,4535,3834.0,615126
2,4540,3851.0,615708
2,4545,3839.0,616379
2,4550,3823.0,617126
2,4555,3774.0,617960
2,4560,3807.0,618644
2,4565,3801.0,619228
2,4570,3781.0,619810
2,4575,3788.0,620478
2,4580,3790.0,621057
2,4585,3823.0,621764
2,4590,3820.0,622440
2,4595,3829.0,623029
2,4600,3822.0,623721
2,4605,3808.0,624473
2,4610,3809.0,625059
2,4615,3829.0,625650
2,4620,3854.0,626253
2,4625,3823.0,626758
2,4630,3861.0,627358
2,4635,3859.0,628051
2,4640,3859.0,628661
2,4645,3846.0,629368
2,4650,3849.0,629964
2,4655,3891.0,630543
2,4660,3886.0,631262
2,4665,3893.0,632025
2,4670,3924.0,632692
2,4675,3926.0,633280
2,4680,3898.0,633783
2,4685,3869.0,634286
2,4690,3871.0,634922
2,4695,3862.0,635595
2,4700,3883.0,636272
2,4705,3897.0,636867
2,4710,3880.0,637633
2,4715,3881.0,638225
2,4720,3853.0,638810
2,4725,3872.0,639483
2,4730,3870.0,640077
2,4735,3883.0,640663
2,4740,3868.0,641423
2,4745,3892.0,642075
2,4750,3904.0,642720
2,4755,3882.0,643263
2,4760,3892.0,643856
2,4765,3895.0,644460
2,4770,3896.0,645051
2,4775,3880.0,645604
2,4780,3883.0,646275
2,4785,3904.0,646902
2,4790,3897.0,647561
2,4795,3893.0,648148
2,4800,3881.0,648879
2,4805,3866.0,649713
2,4810,3882.0,650300
2,4815,3881.0,650915
2,4820,3910.0,651662
2,4825,3923.0,652256
2,4830,3896.0,652752
2,4835,3896.0,653348
2,4840,3876.0,653828
2,4845,3865.0,654491
2,4850,3866.0,655099
2,4855,3904.0,655702
2,4860,3903.0,656370
2,4865,3887.0,657044
2,4870,3879.0,657723
2,4875,3885.0,658425
2,4880,3883.0,659184
2,4885,3877.0,659937
2,4890,3886.0,660528
2,4895,3898.0,661117
2,4900,3912.0,661732
2,4905,3911.0,662401
2,4910,3892.0,663235
2,4915,3864.0,663863
2,4920,3867.0,664455
2,4925,3862.0,665127
2,4930,3890.0,665787
2,4935,3873.0,666439
2,4940,3896.0,667264
2,4945,3906.0,667934
2,4950,3906.0,668529
2,4955,3907.0,669110
2,4960,3894.0,669785
2,4965,3906.0,670473
2,4970,3922.0,671060
2,4975,3921.0,671668
2,4980,3929.0,672451
2,4985,3914.0,672959
2,4990,3912.0,673640
2,4995,3913.0,674222
2,5000,3900.0,674893
2,5005,3915.0,675488
2,5010,3868.0,675888
2,5015,3894.0,676570
2,5020,3881.0,677304
2,5025,3883.0,677980
2,5030,3861.0,678733
2,5035,3877.0,679327
2,5040,3890.0,679905
2,5045,3890.0,680629
2,5050,3861.0,681126
2,5055,3832.0,681634
2,5060,3845.0,682230
2,5065,3840.0,682901
2,5070,3831.0,683609
2,5075,3820.0,684353
2,5080,3831.0,685010
2,5085,3860.0,685602
2,5090,3838.0,686284
2,5095,3829.0,686961
2,5100,3844.0,687557
2,5105,3842.0,688154
2,5110,3909.0,688746
2,5115,3910.0,689419
2,5120,3918.0,690164
2,5125,3921.0,690763
2,5130,3919.0,691374
2,5135,3920.0,691962
2,5140,3905.0,692616
2,5145,3905.0,693286
2,5150,3922.0,693958
2,5155,3951.0,694553
2,5160,3951.0,695152
2,5165,3958.0,695794
2,5170,3967.0,696390
2,5175,3988.0,696989
2,5180,3995.0,697584
2,5185,3995.0,698183
2,5190,4016.0,698801
2,5195,3994.0,699302
2,5200,3976.0,700067
2,5205,3966.0,700667
2,5210,3966.0,701252
2,5215,3968.0,701837
2,5220,3917.0,702259
2,5225,3917.0,702857
2,5230,3927.0,703587
2,5235,3915.0,704262
2,5240,3929.0,704849
2,5245,3917.0,705565
2,5250,3925.0,706234
2,5255,3926.0,706824
2,5260,3917.0,707506
2,5265,3919.0,708098
2,5270,3907.0,708766
2,5275,3896.0,709450
2,5280,3874.0,710212
2,5285,3874.0,710810
2,5290,3875.0,711412
2,5295,3904.0,712004
2,5300,3922.0,712617
2,5305,3918.0,713391
2,5310,3910.0,714108
2,5315,3910.0,714697
2,5320,3954.0,715437
2,5325,3953.0,716039
2,5330,3957.0,716713
2,5335,3967.0,717308
2,5340,3938.0,718143
2,5345,3950.0,718736
2,5350,3944.0,719408
2,5355,3940.0,720008
2,5360,3912.0,720498
2,5365,3912.0,721089
2,5370,3924.0,721688
2,5375,3934.0,722447
2,5380,3919.0,723032
2,5385,3903.0,723746
2,5390,3867.0,724331
2,5395,3849.0,724892
2,5400,3847.0,725561
2,5405,3856.0,726196
2,5410,3864.0,726804
2,5415,3835.0,727315
2,5420,3833.0,727987
2,5425,3818.0,728532
2,5430,3813.0,729097
2,5435,3798.0,729851
2,5440,3827.0,730458
2,5445,3828.0,731082
2,5450,3824.0,731836
2,5455,3828.0,732432
2,5460,3863.0,733121
2,5465,3863.0,733720
2,5470,3855.0,734295
2,5475,3817.0,734893
2,5480,3855.0,735490
2,5485,3864.0,736236
2,5490,3901.0,736837
2,5495,3920.0,737432
2,5500,3922.0,738037
2,5505,3929.0,738663
2,5510,3926.0,739262
2,5515,3954.0,739865
2,5520,3968.0,740470
2,5525,3954.0,740973
2,5530,3957.0,741650
2,5535,3964.0,742321
2,5540,3964.0,742925
2,5545,3965.0,743526
2,5550,3979.0,744109
2,5555,3949.0,744608
2,5560,3939.0,745367
2,5565,3935.0,746042
2,5570,3942.0,746639
2,5575,3981.0,747348
2,5580,3966.0,747893
2,5585,3974.0,748482
2,5590,3921.0,748987
2,5595,3921.0,749575
2,5600,3918.0,750162
2,5605,3919.0,750753
2,5610,3906.0,751426
2,5615,3875.0,752080
2,5620,3854.0,752914
2,5625,3868.0,753454
2,5630,3867.0,754218
2,5635,3849.0,754840
2,5640,3848.0,755428
2,5645,3837.0,756098
2,5650,3834.0,756693
2,5655,3851.0,757377
2,5660,3863.0,757983
2,5665,3860.0,758652
2,5670,3860.0,759259
2,5675,3824.0,759878
2,5680,3831.0,760552
2,5685,3831.0,761146
2,5690,3882.0,761869
2,5695,3882.0,762465
2,5700,3879.0,763156
2,5705,3837.0,763787
2,5710,3841.0,764383
2,5715,3873.0,764983
2,5720,3875.0,765650
2,5725,3879.0,766407
2,5730,3881.0,767000
2,5735,3896.0,767582
2,5740,3863.0,768102
2,5745,3874.0,768712
2,5750,3867.0,769392
2,5755,3868.0,770061
2,5760,3854.0,770603
2,5765,3861.0,771210
2,5770,3833.0,771721
2,5775,3857.0,772325
2,5780,3866.0,772928
2,5785,3853.0,773606
2,5790,3854.0,774208
2,5795,3820.0,774805
2,5800,3815.0,775538
2,5805,3857.0,776127
2,5810,3869.0,776724
2,5815,3866.0,777391
2,5820,3883.0,778066
2,5825,3895.0,778658
2,5830,3897.0,779331
2,5835,3885.0,780084
2,5840,3910.0,780761
2,5845,3901.0,781390
2,5850,3909.0,781976
2,5855,3921.0,782577
2,5860,3934.0,783254
2,5865,3923.0,783897
2,5870,3951.0,784572
2,5875,3962.0,785251
2,5880,3953.0,785915
2,5885,3964.0,786524
2,5890,3949.0,787141
2,5895,3969.0,787817
2,5900,3979.0,788471
2,5905,3976.0,789067
2,5910,3976.0,789665
2,5915,3953.0,790496
2,5920,3929.0,791266
2,5925,3926.0,791898
2,5930,3934.0,792510
2,5935,3939.0,793154
2,5940,3937.0,793832
2,5945,3946.0,794433
2,5950,3947.0,795110
2,5955,3926.0,795801
2,5960,3928.0,796401
2,5965,3930.0,796984
2,5970,3920.0,797580
2,5975,3921.0,798213
2,5980,3919.0,798886
2,5985,3921.0,799484
2,5990,3908.0,800067
2,5995,3923.0,800671
2,6000,3913.0,801379
2,6005,3914.0,802117
2,6010,3904.0,802803
2,6015,3923.0,803485
2,6020,3949.0,804087
2,6025,3950.0,804675
2,6030,3926.0,805205
2,6035,3912.0,805941
2,6040,3920.0,806569
2,6045,3920.0,807176
2,6050,3921.0,807773
2,6055,3918.0,808537
2,6060,3914.0,809216
2,6065,3922.0,809804
2,6070,3932.0,810393
2,6075,3933.0,810980
2,6080,3928.0,811751
2,6085,3928.0,812340
2,6090,3929.0,812843
2,6095,3927.0,813514
2,6100,3937.0,814105
2,6105,3931.0,814790
2,6110,3941.0,815385
2,6115,3936.0,816061
2,6120,3920.0,816818
2,6125,3914.0,817497
2,6130,3939.0,818092
2,6135,3965.0,818769
2,6140,3957.0,819530
2,6145,3957.0,820139
2,6150,3957.0,820741
2,6155,3962.0,821395
2,6160,3955.0,822058
2,6165,3926.0,822690
2,6170,3913.0,823331
2,6175,3898.0,824013
2,6180,3914.0,824616
2,6185,3913.0,825209
2,6190,3940.0,825824
2,6195,3920.0,826377
2,6200,3921.0,826976
2,6205,3917.0,827659
2,6210,3916.0,828336
2,6215,3910.0,829094
2,6220,3906.0,829852
2,6225,3904.0,830593
2,6230,3903.0,831262
2,6235,3901.0,831944
2,6240,3913.0,832537
2,6245,3888.0,833053
2,6250,3884.0,833661
2,6255,3901.0,834335
2,6260,3907.0,834931
2,6265,3927.0,835549
2,6270,3932.0,836139
2,6275,3931.0,836876
2,6280,3920.0,837456
2,6285,3921.0,838046
2,6290,3923.0,838636
2,6295,3944.0,839230
2,6300,3942.0,839904
2,6305,3935.0,840445
2,6310,3935.0,841116
2,6315,3953.0,841715
2,6320,3963.0,842403
2,6325,3970.0,843084
2,6330,3944.0,843602
2,6335,3937.0,844150
2,6340,3925.0,844829
2,6345,3939.0,845400
2,6350,3940.0,845992
2,6355,3926.0,846741
2,6360,3927.0,847332
2,6365,3935.0,847923
2,6370,3944.0,848520
2,6375,3959.0,849124
2,6380,3970.0,849716
2,6385,3930.0,850314
2,6390,3900.0,851035
2,6395,3900.0,851635
2,6400,3863.0,852212
2,6405,3874.0,852807
2,6410,3862.0,853565
2,6415,3862.0,854159
2,6420,3871.0,854771
2,6425,3866.0,855385
2,6430,3892.0,856060
2,6435,3908.0,856661
2,6440,3920.0,857261
2,6445,3922.0,857942
2,6450,3924.0,858539
2,6455,3939.0,859143
2,6460,3943.0,859745
2,6465,3945.0,860343
2,6470,3944.0,860948
2,6475,3944.0,861540
2,6480,3943.0,862129
2,6485,3983.0,862734
2,6490,4012.0,863349
2,6495,4004.0,864032
2,6500,4018.0,864556
2,6505,4025.0,865166
2,6510,4038.0,865767
2,6515,4011.0,866292
2,6520,4004.0,866904
2,6525,4012.0,867513
2,6530,4013.0,868126
2,6535,4014.0,868719
2,6540,4005.0,869414
2,6545,3990.0,870037
2,6550,3990.0,870637
2,6555,3990.0,871242
2,6560,3973.0,871996
2,6565,3971.0,872678
2,6570,3971.0,873283
2,6575,3970.0,873888
2,6580,3933.0,874478
2,6585,3924.0,875182
2,6590,3919.0,875866
2,6595,3928.0,876468
2,6600,3945.0,877147
2,6605,3929.0,877914
2,6610,3921.0,878595
2,6615,3932.0,879338
2,6620,3939.0,879957
2,6625,3939.0,880582
2,6630,3940.0,881199
2,6635,3940.0,881808
2,6640,3924.0,882328
2,6645,3940.0,883006
2,6650,3941.0,883662
2,6655,3938.0,884421
2,6660,3945.0,885126
2,6665,3939.0,885815
2,6670,3911.0,886439
2,6675,3911.0,887037
2,6680,3931.0,887757
2,6685,3922.0,888545
2,6690,3911.0,889093
2,6695,3909.0,889768
2,6700,3914.0,890386
2,6705,3931.0,890993
2,6710,3929.0,891717
2,6715,3911.0,892387
2,6720,3910.0,892999
2,6725,3910.0,893615
2,6730,3910.0,894214
2,6735,3910.0,894812
2,6740,3928.0,895486
2,6745,3936.0,896087
2,6750,3936.0,896695
2,6755,3939.0,897299
2,6760,3940.0,897891
2,6765,3947.0,898487
2,6770,3976.0,899094
2,6775,3975.0,899767
2,6780,3993.0,900377
2,6785,3999.0,901130
2,6790,4002.0,901892
2,6795,3972.0,902398
2,6800,3973.0,903002
2,6805,3971.0,903603
2,6810,3978.0,904272
2,6815,4011.0,904865
2,6820,4013.0,905459
2,6825,3987.0,906000
2,6830,3967.0,906550
2,6835,3965.0,907168
2,6840,3970.0,907782
2,6845,3968.0,908452
2,6850,3968.0,909058
2,6855,3960.0,909744
2,6860,3968.0,910367
2,6865,3967.0,910977
2,6870,3958.0,911647
2,6875,3961.0,912256
2,6880,3935.0,912768
2,6885,3942.0,913448
2,6890,3948.0,914132
2,6895,3949.0,914639
2,6900,3942.0,915317
2,6905,3936.0,916005
2,6910,3939.0,916593
2,6915,3940.0,917185
2,6920,3938.0,917862
2,6925,3955.0,918539
2,6930,3975.0,919142
2,6935,3976.0,919755
2,6940,3977.0,920428
2,6945,3979.0,921025
2,6950,3949.0,921549
2,6955,3898.0,921966
2,6960,3896.0,922645
2,6965,3895.0,923318
2,6970,3895.0,924073
2,6975,3894.0,924757
2,6980,3920.0,925361
2,6985,3924.0,925969
2,6990,3932.0,926585
2,6995,3960.0,927184
2,7000,3969.0,927778
2,7005,3960.0,928452
2,7010,3958.0,929135
2,7015,3957.0,929742
2,7020,3930.0,930266
2,7025,3936.0,930940
2,7030,3928.0,931616
2,7035,3902.0,932146
2,7040,3901.0,932758
2,7045,3895.0,933360
2,7050,3925.0,933965
2,7055,3985.0,934578
2,7060,3988.0,935177
2,7065,3967.0,935832
2,7070,3975.0,936433
2,7075,3975.0,937033
2,7080,3974.0,937648
2,7085,3943.0,938287
2,7090,3926.0,938839
2,7095,3919.0,939512
2,7100,3906.0,940206
2,7105,3913.0,940894
2,7110,3900.0,941448
2,7115,3900.0,942048
2,7120,3929.0,942638
2,7125,3931.0,943239
2,7130,3938.0,943829
2,7135,3964.0,944482
2,7140,3965.0,945080
2,7145,3954.0,945811
2,7150,3949.0,946497
2,7155,3932.0,947068
2,7160,3928.0,947655
2,7165,3943.0,948343
2,7170,3914.0,948852
2,7175,3915.0,949448
2,7180,3916.0,950048
2,7185,3930.0,950755
2,7190,3943.0,951374
2,7195,3943.0,952048
2,7200,3936.0,952605
2,7205,3945.0,953209
2,7210,3959.0,953823
2,7215,3960.0,954423
2,7220,3958.0,955095
2,7225,3958.0,955690
2,7230,3958.0,956285
2,7235,3958.0,956888
2,7240,3957.0,957484
2,7245,3974.0,958087
2,7250,3966.0,958741
2,7255,3980.0,959345
2,7260,3984.0,959950
2,7265,3993.0,960561
2,7270,4013.0,961255
2,7275,3971.0,961845
2,7280,3970.0,962445
2,7285,3987.0,963046
2,7290,3989.0,963646
2,7295,3981.0,964196
2,7300,3991.0,964893
2,7305,3989.0,965538
2,7310,3990.0,966142
2,7315,3988.0,966765
2,7320,3989.0,967372
2,7325,3987.0,968059
2,7330,3985.0,968672
2,7335,3986.0,969270
2,7340,3988.0,969867
2,7345,3988.0,970467
2,7350,4001.0,971063
2,7355,3994.0,971638
2,7360,3992.0,972249
2,7365,3990.0,972862
2,7370,4000.0,973490
2,7375,4039.0,974101
2,7380,4031.0,974776
2,7385,4000.0,975308
2,7390,3972.0,975813
2,7395,3988.0,976496
2,7400,3994.0,977189
2,7405,3987.0,977866
2,7410,3987.0,978476
2,7415,3982.0,979152
2,7420,3983.0,979744
2,7425,3978.0,980419
2,7430,3978.0,981085
2,7435,3968.0,981672
2,7440,3960.0,982340
2,7445,3958.0,982937
2,7450,3954.0,983619
2,7455,3963.0,984223
2,7460,3955.0,984987
2,7465,3947.0,985571
2,7470,3947.0,986176
2,7475,3888.0,986750
2,7480,3897.0,987359
2,7485,3929.0,987967
2,7490,3957.0,988587
2,7495,3956.0,989186
2,7500,3960.0,989790
2,7505,3968.0,990433
2,7510,3964.0,991031
2,7515,3971.0,991631
2,7520,3970.0,992233
2,7525,3977.0,992853
2,7530,3978.0,993476
2,7535,3987.0,994083
2,7540,3994.0,994745
2,7545,3996.0,995355
2,7550,3991.0,996039
2,7555,3992.0,996648
2,7560,4001.0,997252
2,7565,4011.0,997857
2,7570,4011.0,998472
2,7575,4070.0,999085
2,7580,4059.0,999768
2,7585,4027.0,1000273
2,7590,4026.0,1000977
2,7595,4022.0,1001668
2,7600,4019.0,1002384
2,7605,3974.0,1002836
2,7610,3974.0,1003510
2,7615,3973.0,1004129
2,7620,3973.0,1004726
2,7625,3972.0,1005369
2,7630,3965.0,1006056
2,7635,3961.0,1006737
2,7640,3961.0,1007354
2,7645,3956.0,1008033
2,7650,3963.0,1008684
2,7655,3959.0,1009291
2,7660,3949.0,1009983
2,7665,3949.0,1010598
2,7670,3910.0,1011195
2,7675,3910.0,1011793
2,7680,3912.0,1012475
2,7685,3944.0,1013078
2,7690,3947.0,1013677
2,7695,3951.0,1014273
2,7700,3938.0,1014812
2,7705,3985.0,1015410
2,7710,3956.0,1016008
2,7715,3956.0,1016612
2,7720,3944.0,1017369
2,7725,3937.0,1017955
2,7730,3936.0,1018633
2,7735,3939.0,1019250
2,7740,3936.0,1019940
2,7745,3941.0,1020578
2,7750,3943.0,1021225
2,7755,3927.0,1021986
2,7760,3931.0,1022666
2,7765,3921.0,1023341
2,7770,3960.0,1023940
2,7775,3963.0,1024541
2,7780,3947.0,1025177
2,7785,3926.0,1025929
2,7790,3926.0,1026522
2,7795,3929.0,1027150
2,7800,3945.0,1027767
2,7805,3941.0,1028441
2,7810,3974.0,1029045
2,7815,3954.0,1029811
2,7820,3965.0,1030409
2,7825,3964.0,1031085
2,7830,3974.0,1031708
2,7835,3966.0,1032388
2,7840,3958.0,1033063
2,7845,3958.0,1033678
2,7850,3947.0,1034388
2,7855,3964.0,1034981
2,7860,3953.0,1035523
2,7865,3938.0,1036060
2,7870,3925.0,1036857
2,7875,3914.0,1037535
2,7880,3938.0,1038132
2,7885,3958.0,1038726
2,7890,3948.0,1039407
2,7895,3946.0,1040046
2,7900,3942.0,1040761
2,7905,3933.0,1041594
2,7910,3924.0,1042271
2,7915,3944.0,1042872
2,7920,3937.0,1043596
2,7925,3947.0,1044215
2,7930,3931.0,1044765
2,7935,3939.0,1045356
2,7940,3950.0,1046025
2,7945,3950.0,1046620
2,7950,3961.0,1047215
2,7955,3961.0,1047898
2,7960,3979.0,1048506
2,7965,4001.0,1049105
2,7970,4014.0,1049705
2,7975,3975.0,1050370
2,7980,3976.0,1050966
2,7985,3974.0,1051651
2,7990,3981.0,1052335
2,7995,3983.0,1052929
2,8000,3987.0,1053543
2,8005,3996.0,1054145
2,8010,4004.0,1054750
2,8015,4004.0,1055368
2,8020,4010.0,1055968
2,8025,4010.0,1056557
2,8030,4011.0,1057392
2,8035,4007.0,1058150
2,8040,4007.0,1058745
2,8045,4003.0,1059353
2,8050,4001.0,1059949
2,8055,3990.0,1060507
2,8060,3978.0,1061197
2,8065,3977.0,1061922
2,8070,3959.0,1062686
2,8075,4004.0,1063410
2,8080,3995.0,1064085
2,8085,3997.0,1064691
2,8090,3998.0,1065472
2,8095,3989.0,1066172
2,8100,3988.0,1066784
2,8105,3974.0,1067354
2,8110,3967.0,1068044
2,8115,3967.0,1068727
2,8120,3961.0,1069420
2,8125,3934.0,1069953
2,8130,3937.0,1070646
2,8135,3943.0,1071253
2,8140,3934.0,1071941
2,8145,3930.0,1072617
2,8150,3931.0,1073206
2,8155,3942.0,1073815
2,8160,3954.0,1074435
2,8165,3955.0,1075034
2,8170,3973.0,1075640
2,8175,3952.0,1076148
2,8180,3953.0,1076832
2,8185,3951.0,1077430
2,8190,3953.0,1078035
2,8195,3962.0,1078626
2,8200,3963.0,1079219
2,8205,3979.0,1079828
2,8210,3964.0,1080512
2,8215,3948.0,1081056
2,8220,3954.0,1081748
2,8225,3972.0,1082343
2,8230,3967.0,1082893
2,8235,3964.0,1083485
2,8240,3973.0,1084098
2,8245,3979.0,1084699
2,8250,3979.0,1085297
2,8255,3981.0,1085899
2,8260,3970.0,1086584
2,8265,3973.0,1087189
2,8270,3973.0,1087789
2,8275,3969.0,1088293
2,8280,3962.0,1089054
2,8285,3949.0,1089842
2,8290,3948.0,1090460
2,8295,3947.0,1091118
2,8300,3938.0,1091812
2,8305,3940.0,1092416
2,8310,3963.0,1093024
2,8315,3966.0,1093718
2,8320,3965.0,1094394
2,8325,3965.0,1095086
2,8330,3982.0,1095683
2,8335,3981.0,1096361
2,8340,3982.0,1096974
2,8345,3983.0,1097567
2,8350,3981.0,1098183
2,8355,3981.0,1098787
2,8360,3992.0,1099398
2,8365,3989.0,1100003
2,8370,3981.0,1100684
2,8375,4010.0,1101284
2,8380,4018.0,1101969
2,8385,4017.0,1102655
2,8390,4015.0,1103262
2,8395,4015.0,1103862
2,8400,4024.0,1104461
2,8405,3991.0,1104974
2,8410,3984.0,1105665
2,8415,3997.0,1106275
2,8420,3992.0,1107060
2,8425,3998.0,1107732
2,8430,3938.0,1108230
2,8435,3941.0,1108831
2,8440,3937.0,1109496
2,8445,3905.0,1110181
2,8450,3904.0,1110870
2,8455,3905.0,1111479
2,8460,3894.0,1112070
2,8465,3896.0,1112667
2,8470,3893.0,1113454
2,8475,3893.0,1114060
2,8480,3894.0,1114736
2,8485,3909.0,1115351
2,8490,3911.0,1115943
2,8495,3912.0,1116549
2,8500,3911.0,1117152
2,8505,3930.0,1117885
2,8510,3933.0,1118578
2,8515,3924.0,1119257
2,8520,3897.0,1119771
2,8525,3891.0,1120458
2,8530,3942.0,1121138
2,8535,3942.0,1121742
2,8540,3937.0,1122420
2,8545,3961.0,1123016
2,8550,3964.0,1123609
2,8555,3953.0,1124292
2,8560,3943.0,1125058
2,8565,3944.0,1125660
2,8570,3954.0,1126270
2,8575,3955.0,1126864
2,8580,3960.0,1127509
2,8585,3961.0,1128123
2,8590,3942.0,1128888
2,8595,3940.0,1129517
2,8600,3941.0,1130122
2,8605,3946.0,1130808
2,8610,3950.0,1131411
2,8615,3958.0,1132007
2,8620,3988.0,1132697
2,8625,3986.0,1133285
2,8630,3962.0,1133795
2,8635,3962.0,1134400
2,8640,3964.0,1135097
2,8645,3965.0,1135773
2,8650,3966.0,1136371
2,8655,3955.0,1137056
2,8660,3975.0,1137671
2,8665,3973.0,1138291
2,8670,3965.0,1138968
2,8675,3954.0,1139644
2,8680,3947.0,1140326
2,8685,3935.0,1141000
2,8690,3944.0,1141750
2,8695,3945.0,1142370
2,8700,3937.0,1143067
2,8705,3938.0,1143752
2,8710,3936.0,1144344
2,8715,3936.0,1144953
2,8720,3942.0,1145561
2,8725,3945.0,1146238
2,8730,3977.0,1146851
2,8735,3972.0,1147544
2,8740,3959.0,1148226
2,8745,3965.0,1148955
2,8750,3960.0,1149638
2,8755,3972.0,1150323
2,8760,3969.0,1151107
2,8765,3961.0,1151786
2,8770,3968.0,1152470
2,8775,3977.0,1153074
2,8780,3985.0,1153669
2,8785,3988.0,1154270
2,8790,3991.0,1154957
2,8795,3992.0,1155562
2,8800,3996.0,1156156
2,8805,3995.0,1156831
2,8810,3994.0,1157468
2,8815,3995.0,1158057
2,8820,3993.0,1158653
2,8825,4001.0,1159268
2,8830,3994.0,1159940
2,8835,4000.0,1160554
2,8840,4019.0,1161164
2,8845,4021.0,1161766
2,8850,4025.0,1162371
2,8855,4005.0,1162901
2,8860,3980.0,1163436
2,8865,3990.0,1164039
2,8870,3991.0,1164651
2,8875,3982.0,1165343
2,8880,3980.0,1165973
2,8885,3978.0,1166687
2,8890,3986.0,1167293
2,8895,3985.0,1167911
2,8900,3988.0,1168537
2,8905,3995.0,1169143
2,8910,3997.0,1169747
2,8915,3997.0,1170349
2,8920,3998.0,1170961
2,8925,3987.0,1171646
2,8930,3992.0,1172250
2,8935,3992.0,1172849
2,8940,3993.0,1173443
2,8945,3993.0,1174041
2,8950,3993.0,1174658
2,8955,4010.0,1175420
2,8960,4020.0,1176175
2,8965,4018.0,1176793
2,8970,4019.0,1177378
2,8975,4027.0,1177980
2,8980,4029.0,1178579
2,8985,4041.0,1179185
2,8990,4041.0,1179787
2,8995,4042.0,1180397
2,9000,4040.0,1181029
2,9005,4040.0,1181635
2,9010,4038.0,1182233
2,9015,4036.0,1182897
2,9020,4012.0,1183533
2,9025,4014.0,1184111
2,9030,4004.0,1184676
2,9035,3998.0,1185354
2,9040,3998.0,1185953
2,9045,3998.0,1186548
2,9050,3998.0,1187153
2,9055,4011.0,1187781
2,9060,4028.0,1188391
2,9065,4018.0,1189105
2,9070,4015.0,1189837
2,9075,4015.0,1190522
2,9080,4015.0,1191140
2,9085,4011.0,1191896
2,9090,4001.0,1192610
2,9095,3999.0,1193293
2,9100,4002.0,1193898
2,9105,3993.0,1194581
2,9110,3988.0,1195291
2,9115,3990.0,1195910
2,9120,4014.0,1196528
2,9125,4022.0,1197196
2,9130,4035.0,1197846
2,9135,4039.0,1198462
2,9140,4036.0,1199079
2,9145,4036.0,1199688
2,9150,4036.0,1200301
2,9155,4035.0,1200890
2,9160,4021.0,1201705
2,9165,4017.0,1202435
2,9170,4020.0,1203039
2,9175,4023.0,1203636
2,9180,4021.0,1204232
2,9185,4024.0,1204823
2,9190,4034.0,1205425
2,9195,4018.0,1206086
2,9200,4018.0,1206694
2,9205,4028.0,1207290
2,9210,4035.0,1207895
2,9215,4034.0,1208488
2,9220,4035.0,1209084
2,9225,4036.0,1209685
2,9230,4034.0,1210286
2,9235,4035.0,1210888
2,9240,4035.0,1211506
2,9245,4034.0,1212108
2,9250,4031.0,1212721
2,9255,4032.0,1213321
2,9260,4043.0,1213924
2,9265,4055.0,1214585
2,9270,4053.0,1215187
2,9275,4053.0,1215788
2,9280,4047.0,1216469
2,9285,4039.0,1217144
2,9290,4037.0,1217738
2,9295,4052.0,1218333
2,9300,4052.0,1218936
2,9305,4045.0,1219618
2,9310,4030.0,1220461
2,9315,4030.0,1221062
2,9320,4029.0,1221660
2,9325,4023.0,1222341
2,9330,4023.0,1223018
2,9335,4001.0,1223550
2,9340,3971.0,1224074
2,9345,3972.0,1224686
2,9350,3965.0,1225380
2,9355,3957.0,1226138
2,9360,3959.0,1226807
2,9365,3962.0,1227414
2,9370,3962.0,1228100
2,9375,3962.0,1228723
2,9380,3969.0,1229378
2,9385,3978.0,1230000
2,9390,3980.0,1230608
2,9395,3967.0,1231177
2,9400,3958.0,1231922
2,9405,3966.0,1232530
2,9410,3979.0,1233222
2,9415,3966.0,1233988
2,9420,3967.0,1234604
2,9425,3972.0,1235224
2,9430,3973.0,1235857
2,9435,3996.0,1236455
2,9440,4025.0,1237043
2,9445,4025.0,1237657
2,9450,4035.0,1238256
2,9455,4035.0,1238862
2,9460,4037.0,1239469
2,9465,4037.0,1240092
2,9470,4035.0,1240771
2,9475,4026.0,1241360
2,9480,4025.0,1241951
2,9485,4025.0,1242550
2,9490,4023.0,1243155
2,9495,4036.0,1243764
2,9500,4044.0,1244400
2,9505,4032.0,1244986
2,9510,4035.0,1245598
2,9515,4050.0,1246191
2,9520,4031.0,1246778
2,9525,4032.0,1247423
2,9530,4029.0,1248013
2,9535,4021.0,1248693
2,9540,4018.0,1249371
2,9545,4017.0,1249966
2,9550,4018.0,1250574
2,9555,4020.0,1251210
2,9560,4020.0,1251822
2,9565,4021.0,1252422
2,9570,4012.0,1252998
2,9575,4021.0,1253631
2,9580,4019.0,1254261
2,9585,4008.0,1254918
2,9590,3986.0,1255711
2,9595,3985.0,1256338
2,9600,3981.0,1256951
2,9605,3993.0,1257573
2,9610,3992.0,1258185
2,9615,3992.0,1258785
2,9620,4009.0,1259420
2,9625,4009.0,1260110
2,9630,4013.0,1260740
2,9635,4019.0,1261349
2,9640,4026.0,1261959
2,9645,4026.0,1262596
2,9650,4026.0,1263221
2,9655,4030.0,1263856
2,9660,4023.0,1264543
2,9665,4004.0,1265173
2,9670,4016.0,1265797
2,9675,4016.0,1266410
2,9680,4020.0,1267022
2,9685,4031.0,1267650
2,9690,4045.0,1268334
2,9695,4047.0,1268944
2,9700,4052.0,1269545
2,9705,4044.0,1270230
2,9710,4045.0,1270858
2,9715,4040.0,1271466
2,9720,4042.0,1272090
2,9725,4026.0,1272770
2,9730,4015.0,1273544
2,9735,4016.0,1274154
2,9740,4002.0,1274862
2,9745,3985.0,1275549
2,9750,3981.0,1276201
2,9755,3982.0,1276818
2,9760,3990.0,1277448
2,9765,3999.0,1278182
2,9770,4000.0,1278812
2,9775,3999.0,1279446
2,9780,3966.0,1280150
2,9785,3965.0,1280761
2,9790,3974.0,1281419
2,9795,3971.0,1282108
2,9800,3964.0,1282802
2,9805,3972.0,1283418
2,9810,3971.0,1284039
2,9815,3973.0,1284659
2,9820,3963.0,1285338
2,9825,3978.0,1286021
2,9830,3956.0,1286610
2,9835,3955.0,1287241
2,9840,3969.0,1287883
2,9845,3987.0,1288500
2,9850,3989.0,1289100
2,9855,3989.0,1289709
2,9860,3973.0,1290302
2,9865,3982.0,1290926
2,9870,3973.0,1291629
2,9875,3974.0,1292252
2,9880,4007.0,1292861
2,9885,3997.0,1293552
2,9890,3998.0,1294163
2,9895,3999.0,1294770
2,9900,4005.0,1295375
2,9905,3956.0,1295838
2,9910,3949.0,1296476
2,9915,3940.0,1297060
2,9920,3943.0,1297752
2,9925,3940.0,1298355
2,9930,3964.0,1298972
2,9935,3961.0,1299579
2,9940,3951.0,1300275
2,9945,3944.0,1300960
2,9950,3939.0,1301542
2,9955,3932.0,1302235
2,9960,3948.0,1302851
2,9965,3943.0,1303464
2,9970,3949.0,1304154
2,9975,3947.0,1304834
2,9980,3938.0,1305608
2,9985,3939.0,1306315
2,9990,3923.0,1306882
2,9995,3925.0,1307488
2,10000,3926.0,1308098
2,10005,3946.0,1308616
2,10010,3952.0,1309213
2,10015,3955.0,1309914
2,10020,3962.0,1310519
2,10025,3966.0,1311129
2,10030,3975.0,1311737
2,10035,3980.0,1312348
2,10040,3979.0,1313034
2,10045,3985.0,1313642
2,10050,3991.0,1314273
2,10055,3993.0,1314946
2,10060,3982.0,1315540
2,10065,3988.0,1316148
2,10070,3985.0,1316848
2,10075,3986.0,1317560
2,10080,3985.0,1318273
2,10085,3993.0,1318893
2,10090,4009.0,1319505
2,10095,4003.0,1320193
2,10100,3988.0,1320863
2,10105,4015.0,1321500
2,10110,4009.0,1322224
2,10115,4017.0,1322841
2,10120,4017.0,1323467
2,10125,4016.0,1324120
2,10130,4013.0,1324800
2,10135,4003.0,1325492
2,10140,4014.0,1326129
2,10145,3999.0,1326682
2,10150,3991.0,1327292
2,10155,3985.0,1327973
2,10160,3996.0,1328602
2,10165,3995.0,1329227
2,10170,3995.0,1329849
2,10175,3987.0,1330527
2,10180,3996.0,1331185
2,10185,3994.0,1331793
2,10190,3994.0,1332403
2,10195,3999.0,1333029
2,10200,4013.0,1333663
2,10205,4013.0,1334378
2,10210,4021.0,1334991
2,10215,4015.0,1335670
2,10220,4015.0,1336289
2,10225,4015.0,1336894
2,10230,4018.0,1337499
2,10235,4008.0,1338167
2,10240,4008.0,1338786
2,10245,4024.0,1339410
2,10250,4033.0,1340038
2,10255,4034.0,1340806
2,10260,4033.0,1341412
2,10265,4024.0,1342089
2,10270,4021.0,1342781
2,10275,4022.0,1343389
2,10280,4022.0,1344009
2,10285,4026.0,1344624
2,10290,4021.0,1345311
2,10295,4024.0,1345931
2,10300,4024.0,1346534
2,10305,4020.0,1347230
2,10310,4019.0,1347831
2,10315,4011.0,1348516
2,10320,4010.0,1349116
2,10325,3986.0,1349739
2,10330,3977.0,1350425
2,10335,3995.0,1351122
2,10340,3994.0,1351733
2,10345,3991.0,1352341
2,10350,3990.0,1352961
2,10355,4001.0,1353584
2,10360,3972.0,1354104
2,10365,3982.0,1354712
2,10370,3989.0,1355312
2,10375,3986.0,1355997
2,10380,3987.0,1356635
2,10385,3979.0,1357331
2,10390,3949.0,1357929
2,10395,3947.0,1358532
2,10400,3946.0,1359142
2,10405,3950.0,1359764
2,10410,3949.0,1360378
2,10415,3945.0,1361029
2,10420,3939.0,1361700
2,10425,3961.0,1362384
2,10430,3970.0,1362998
2,10435,3971.0,1363617
2,10440,3971.0,1364241
2,10445,3966.0,1364997
2,10450,3908.0,1365772
2,10455,3908.0,1366386
2,10460,3938.0,1367007
2,10465,3938.0,1367628
2,10470,3929.0,1368394
2,10475,3940.0,1369041
2,10480,3927.0,1369642
2,10485,3913.0,1370200
2,10490,3939.0,1370881
2,10495,3940.0,1371484
2,10500,3939.0,1372090
2,10505,3930.0,1372777
2,10510,3923.0,1373478
2,10515,3940.0,1374086
2,10520,3928.0,1374715
2,10525,3925.0,1375444
2,10530,3923.0,1376056
2,10535,3923.0,1376662
2,10540,3923.0,1377297
2,10545,3922.0,1377914
2,10550,3981.0,1378520
2,10555,3979.0,1379131
2,10560,3978.0,1379740
2,10565,3960.0,1380362
2,10570,3962.0,1381054
2,10575,3953.0,1381758
2,10580,3966.0,1382399
2,10585,3953.0,1382891
2,10590,3952.0,1383575
2,10595,3942.0,1384259
2,10600,3945.0,1384865
2,10605,3955.0,1385473
2,10610,3957.0,1386128
2,10615,3944.0,1386809
2,10620,3954.0,1387511
2,10625,3957.0,1388125
2,10630,3948.0,1388706
2,10635,3946.0,1389355
2,10640,3938.0,1390042
2,10645,3944.0,1390640
2,10650,3942.0,1391245
2,10655,3929.0,1391929
2,10660,3928.0,1392565
2,10665,3945.0,1393186
2,10670,3942.0,1393957
2,10675,3950.0,1394600
2,10680,3948.0,1395240
2,10685,3971.0,1395935
2,10690,3973.0,1396563
2,10695,3974.0,1397154
2,10700,3974.0,1397784
2,10705,3974.0,1398399
2,10710,3980.0,1399003
2,10715,3995.0,1399607
2,10720,4002.0,1400219
2,10725,3995.0,1400926
2,10730,4001.0,1401622
2,10735,4003.0,1402218
2,10740,4010.0,1402861
2,10745,4013.0,1403473
2,10750,4014.0,1404095
2,10755,4028.0,1404730
2,10760,4019.0,1405412
2,10765,4020.0,1406009
2,10770,4030.0,1406643
2,10775,4029.0,1407295
2,10780,4028.0,1407991
2,10785,4033.0,1408682
2,10790,4041.0,1409299
2,10795,4021.0,1409825
2,10800,4021.0,1410420
2,10805,4021.0,1411028
2,10810,4021.0,1411671
2,10815,4020.0,1412286
2,10820,4012.0,1412974
2,10825,4019.0,1413637
2,10830,4015.0,1414340
2,10835,4016.0,1414943
2,10840,4018.0,1415548
2,10845,4018.0,1416223
2,10850,4019.0,1416859
2,10855,4020.0,1417464
2,10860,4030.0,1418088
2,10865,4024.0,1418702
2,10870,3994.0,1419217
2,10875,3996.0,1419823
2,10880,3996.0,1420514
2,10885,3995.0,1421212
2,10890,3994.0,1421892
2,10895,4024.0,1422549
2,10900,4023.0,1423169
2,10905,4023.0,1423807
2,10910,4024.0,1424409
2,10915,4025.0,1425044
2,10920,4034.0,1425669
2,10925,4028.0,1426381
2,10930,4037.0,1427011
2,10935,4036.0,1427658
2,10940,4036.0,1428313
2,10945,4027.0,1429026
2,10950,4027.0,1429654
2,10955,4023.0,1430288
2,10960,4024.0,1430898
2,10965,4028.0,1431525
2,10970,4041.0,1432083
2,10975,4041.0,1432695
2,10980,4010.0,1433217
2,10985,4014.0,1433908
2,10990,4009.0,1434597
2,10995,4009.0,1435207
2,11000,4010.0,1435839
2,11005,3998.0,1436531
2,11010,3993.0,1437218
2,11015,3993.0,1437869
2,11020,3994.0,1438484
2,11025,4000.0,1439182
2,11030,3997.0,1439944
2,11035,3976.0,1440572
2,11040,3975.0,1441205
2,11045,3984.0,1441810
2,11050,3981.0,1442468
2,11055,3979.0,1443062
2,11060,3979.0,1443668
2,11065,3978.0,1444359
2,11070,3989.0,1445118
2,11075,3988.0,1445743
2,11080,4015.0,1446430
2,11085,4018.0,1447051
2,11090,4023.0,1447666
2,11095,4006.0,1448243
2,11100,4006.0,1448869
2,11105,4019.0,1449544
2,11110,4016.0,1450340
2,11115,4013.0,1451004
2,11120,4013.0,1451632
2,11125,3937.0,1452116
2,11130,3940.0,1452735
2,11135,3951.0,1453450
2,11140,3952.0,1454059
2,11145,3952.0,1454678
2,11150,3953.0,1455355
2,11155,3958.0,1455963
2,11160,3939.0,1456593
2,11165,3941.0,1457202
2,11170,3946.0,1457889
2,11175,3941.0,1458606
2,11180,3947.0,1459201
2,11185,3947.0,1459970
2,11190,3947.0,1460604
2,11195,3960.0,1461226
2,11200,3954.0,1462017
2,11205,3950.0,1462677
2,11210,3953.0,1463364
2,11215,3950.0,1463978
2,11220,3940.0,1464791
2,11225,4005.0,1465486
2,11230,4004.0,1466093
2,11235,4005.0,1466793
2,11240,4001.0,1467434
2,11245,3998.0,1468120
2,11250,3997.0,1468803
2,11255,3997.0,1469404
2,11260,4015.0,1470005
2,11265,4007.0,1470700
2,11270,4009.0,1471330
2,11275,4011.0,1471925
2,11280,4002.0,1472622
2,11285,4002.0,1473248
2,11290,3993.0,1473923
2,11295,3996.0,1474525
2,11300,4002.0,1475132
2,11305,4006.0,1475763
2,11310,4010.0,1476377
2,11315,4015.0,1477021
2,11320,4014.0,1477721
2,11325,4019.0,1478418
2,11330,4018.0,1479025
2,11335,4027.0,1479623
2,11340,4031.0,1480235
2,11345,4024.0,1480932
2,11350,4027.0,1481549
2,11355,4026.0,1482168
2,11360,4024.0,1482854
2,11365,4032.0,1483487
2,11370,4018.0,1484274
2,11375,4021.0,1484891
2,11380,4030.0,1485518
2,11385,4015.0,1486098
2,11390,4025.0,1486731
2,11395,4018.0,1487481
2,11400,4015.0,1488187
2,11405,4013.0,1488844
2,11410,4013.0,1489492
2,11415,4006.0,1490147
2,11420,3990.0,1490829
2,11425,3989.0,1491526
2,11430,3980.0,1492229
2,11435,3962.0,1492902
2,11440,3957.0,1493625
2,11445,3958.0,1494311
2,11450,3958.0,1494921
2,11455,3949.0,1495601
2,11460,3943.0,1496185
2,11465,3944.0,1496839
2,11470,3959.0,1497486
2,11475,3959.0,1498105
2,11480,3959.0,1498740
2,11485,3965.0,1499428
