% time spent exploring,episodes,mean 100 episode reward,steps
99,5,675.0,627
99,10,488.9,1016
99,15,500.0,1794
99,20,526.3,2448
98,25,575.0,3218
98,30,506.9,3937
98,35,508.8,4542
98,40,502.6,5127
98,45,490.9,5713
97,50,487.8,6439
97,55,505.6,7158
97,60,500.0,7849
97,65,490.6,8581
96,70,500.0,9184
96,75,487.8,9794
96,80,497.5,10520
96,85,498.8,11246
96,90,494.4,11927
95,95,501.1,12718
95,100,517.2,13638
95,105,524.0,14350
95,110,545.0,15001
94,115,555.0,15594
94,120,549.0,16306
94,125,536.0,16993
94,130,561.0,17469
94,135,564.0,18133
93,140,571.0,18698
93,145,582.0,19353
93,150,588.0,19980
93,155,585.0,20576
93,160,595.0,21002
92,165,605.0,21868
92,170,599.0,22368
92,175,611.0,22953
92,180,613.0,23530
92,185,606.0,23857
91,190,610.0,24527
91,195,621.0,25320
91,200,612.0,25921
91,205,608.0,26601
91,210,607.0,27153
90,215,599.0,27722
90,220,608.0,28383
90,225,623.0,29078
90,230,612.0,29707
90,235,621.0,30259
89,240,621.0,30660
89,245,613.0,31124
89,250,624.0,31602
89,255,619.0,32044
89,260,619.0,32690
89,265,644.0,33462
88,270,649.0,34066
88,275,672.0,34805
88,280,672.0,35504
88,285,697.0,36101
88,290,701.0,36576
87,295,698.0,37275
87,300,694.0,37697
87,305,708.0,38545
87,310,710.0,38976
87,315,720.0,39597
86,320,723.0,40176
86,325,715.0,40614
86,330,731.0,41137
86,335,727.0,41512
86,340,730.0,42047
86,345,753.0,42739
85,350,749.0,43179
85,355,766.0,43791
85,360,774.0,44601
85,365,753.0,44961
85,370,775.0,45759
84,375,760.0,46239
84,380,768.0,46846
84,385,752.0,47220
84,390,741.0,47458
84,395,743.0,48078
84,400,756.0,48538
83,405,737.0,49067
83,410,733.0,49477
83,415,736.0,49903
83,420,738.0,50425
83,425,734.0,50805
83,430,744.0,51471
83,435,738.0,51833
82,440,750.0,52419
82,445,757.0,53206
82,450,761.0,53802
82,455,741.0,54140
82,460,751.0,54786
81,465,746.0,55154
81,470,735.0,55711
81,475,744.0,56448
81,480,734.0,56850
81,485,743.0,57251
81,490,775.0,57919
80,495,759.0,58273
80,500,753.0,58676
80,505,767.0,59223
80,510,762.0,59545
80,515,774.0,60415
80,520,772.0,60965
79,525,800.0,61766
79,530,801.0,62398
79,535,813.0,62951
79,540,833.0,63935
78,545,827.0,64815
78,550,828.0,65478
78,555,849.0,66134
78,560,822.0,66543
78,565,844.0,67260
77,570,837.0,67751
77,575,824.0,68148
77,580,828.0,68575
77,585,817.0,68903
77,590,825.0,69676
77,595,841.0,70307
76,600,857.0,70957
76,605,856.0,71612
76,610,895.0,72476
76,615,883.0,72966
75,620,894.0,73540
75,625,888.0,74077
75,630,886.0,74529
75,635,888.0,75167
75,640,863.0,75627
75,645,881.0,76299
74,650,877.0,76647
74,655,880.0,77030
74,660,892.0,77386
74,665,895.0,78020
74,670,909.0,78470
74,675,929.0,78981
74,680,941.0,79476
73,685,965.0,80065
73,690,948.0,80589
73,695,943.0,81036
73,700,944.0,81629
73,705,945.0,82199
72,710,945.0,82924
72,715,951.0,83605
72,720,942.0,84034
72,725,945.0,84612
72,730,950.0,85222
71,735,996.0,86166
71,740,1007.0,86704
71,745,1030.0,87651
71,750,1059.0,88262
70,755,1070.0,88882
70,760,1078.0,89369
70,765,1075.0,89864
70,770,1063.0,90217
70,775,1050.0,90585
70,780,1055.0,91128
70,785,1047.0,91501
69,790,1058.0,92049
69,795,1072.0,92657
69,800,1073.0,93152
69,805,1083.0,93670
69,810,1085.0,94477
69,815,1090.0,94871
68,820,1117.0,95467
68,825,1112.0,96018
68,830,1130.0,96702
68,835,1085.0,97202
68,840,1089.0,97810
67,845,1051.0,98325
67,850,1029.0,98870
67,855,997.0,99257
67,860,1002.0,99666
67,865,1026.0,100336
67,870,1042.0,100844
66,875,1048.0,101243
66,880,1051.0,101791
66,885,1073.0,102488
66,890,1061.0,102985
66,895,1089.0,103801
65,900,1095.0,104331
65,905,1089.0,104817
65,910,1075.0,105403
65,915,1080.0,106077
65,920,1095.0,106723
64,925,1095.0,107147
64,930,1080.0,107656
64,935,1084.0,108214
64,940,1102.0,109039
64,945,1099.0,109410
64,950,1096.0,109729
63,955,1130.0,110245
63,960,1152.0,110903
63,965,1115.0,111202
63,970,1109.0,111569
63,975,1130.0,112233
63,980,1150.0,113065
62,985,1156.0,113689
62,990,1175.0,114293
62,995,1140.0,114767
62,1000,1126.0,115242
62,1005,1153.0,115858
61,1010,1180.0,116609
61,1015,1166.0,116960
61,1020,1117.0,117170
61,1025,1126.0,117758
61,1030,1148.0,118658
61,1035,1158.0,119097
60,1040,1166.0,119919
60,1045,1179.0,120620
60,1050,1194.0,121169
60,1055,1224.0,122073
59,1060,1200.0,122726
59,1065,1224.0,123383
59,1070,1241.0,123991
59,1075,1228.0,124438
59,1080,1217.0,125042
58,1085,1223.0,125849
58,1090,1228.0,126442
58,1095,1267.0,127437
58,1100,1294.0,128139
58,1105,1250.0,128349
57,1110,1234.0,129004
57,1115,1266.0,129547
57,1120,1321.0,130322
57,1125,1337.0,131026
56,1130,1321.0,131715
56,1135,1325.0,132247
56,1140,1333.0,133177
56,1145,1344.0,133779
55,1150,1383.0,134707
55,1155,1358.0,135265
55,1160,1368.0,135932
55,1165,1386.0,136641
55,1170,1380.0,137199
55,1175,1391.0,137738
54,1180,1382.0,138175
54,1185,1372.0,138781
54,1190,1355.0,139134
54,1195,1327.0,139579
54,1200,1342.0,140574
53,1205,1401.0,141448
53,1210,1424.0,142443
53,1215,1449.0,143395
52,1220,1456.0,144163
52,1225,1446.0,144763
52,1230,1456.0,145339
52,1235,1464.0,145994
52,1240,1466.0,146680
51,1245,1476.0,147477
51,1250,1444.0,148136
51,1255,1460.0,148851
51,1260,1491.0,149727
50,1265,1480.0,150343
50,1270,1499.0,150999
50,1275,1515.0,151772
50,1280,1553.0,152590
49,1285,1558.0,153297
49,1290,1586.0,153964
49,1295,1612.0,154727
49,1300,1596.0,155402
48,1305,1591.0,156228
48,1310,1580.0,157110
48,1315,1554.0,157798
48,1320,1529.0,158523
47,1325,1547.0,159200
47,1330,1546.0,159852
47,1335,1580.0,160613
47,1340,1562.0,161215
47,1345,1559.0,161906
46,1350,1577.0,162593
46,1355,1582.0,163411
46,1360,1570.0,163977
46,1365,1562.0,164652
46,1370,1572.0,165237
45,1375,1576.0,165910
45,1380,1564.0,166613
45,1385,1595.0,167439
45,1390,1592.0,168126
44,1395,1587.0,168684
44,1400,1601.0,169383
44,1405,1597.0,169985
44,1410,1585.0,170801
43,1415,1592.0,171611
43,1420,1617.0,172594
43,1425,1615.0,173297
43,1430,1625.0,173970
43,1435,1587.0,174375
42,1440,1606.0,174983
42,1445,1596.0,175607
42,1450,1587.0,176248
42,1455,1610.0,177243
41,1460,1622.0,177924
41,1465,1627.0,178305
41,1470,1623.0,179084
41,1475,1648.0,179939
41,1480,1643.0,180475
40,1485,1599.0,180856
40,1490,1616.0,181553
40,1495,1623.0,182212
40,1500,1636.0,182997
39,1505,1663.0,183992
39,1510,1666.0,184805
39,1515,1662.0,185617
39,1520,1666.0,186400
38,1525,1684.0,187224
38,1530,1704.0,188121
38,1535,1737.0,188983
38,1540,1736.0,189766
37,1545,1737.0,190358
37,1550,1762.0,191208
37,1555,1752.0,192092
37,1560,1750.0,192710
36,1565,1744.0,193179
36,1570,1765.0,193966
36,1575,1741.0,194499
36,1580,1760.0,195238
35,1585,1802.0,196043
35,1590,1800.0,196796
35,1595,1830.0,197620
35,1600,1821.0,198192
35,1605,1794.0,198869
34,1610,1820.0,199568
34,1615,1852.0,200414
34,1620,1823.0,200902
34,1625,1820.0,201581
33,1630,1797.0,202246
33,1635,1801.0,203241
33,1640,1794.0,204072
33,1645,1817.0,204761
32,1650,1801.0,205388
32,1655,1795.0,206066
32,1660,1784.0,206547
32,1665,1789.0,207145
32,1670,1762.0,207598
31,1675,1764.0,208265
31,1680,1756.0,208936
31,1685,1741.0,209540
31,1690,1765.0,210472
31,1695,1723.0,210931
30,1700,1718.0,211588
30,1705,1748.0,212359
30,1710,1767.0,213354
30,1715,1740.0,213908
29,1720,1753.0,214420
29,1725,1793.0,215415
29,1730,1816.0,216117
29,1735,1808.0,216675
29,1740,1822.0,217275
28,1745,1821.0,217952
28,1750,1816.0,218580
28,1755,1788.0,219062
28,1760,1821.0,219900
27,1765,1877.0,220895
27,1770,1911.0,221701
27,1775,1937.0,222529
27,1780,1955.0,223371
26,1785,1970.0,224273
26,1790,1977.0,225007
26,1795,2024.0,226002
25,1800,2034.0,226606
25,1805,2020.0,227281
25,1810,2017.0,228034
25,1815,2033.0,228757
24,1820,2083.0,229620
24,1825,2052.0,230350
24,1830,2067.0,231221
24,1835,2111.0,232216
23,1840,2103.0,232816
23,1845,2121.0,233628
23,1850,2168.0,234540
23,1855,2191.0,235090
22,1860,2195.0,235824
22,1865,2163.0,236456
22,1870,2177.0,237308
22,1875,2183.0,238040
22,1880,2173.0,238692
21,1885,2178.0,239395
21,1890,2157.0,240085
21,1895,2167.0,240854
20,1900,2208.0,241849
20,1905,2204.0,242395
20,1910,2208.0,243315
20,1915,2233.0,244040
20,1920,2213.0,244799
19,1925,2216.0,245492
19,1930,2204.0,246059
19,1935,2208.0,246952
19,1940,2238.0,247776
18,1945,2246.0,248600
18,1950,2248.0,249355
18,1955,2290.0,250193
17,1960,2312.0,251037
17,1965,2367.0,251913
17,1970,2368.0,252908
17,1975,2362.0,253593
16,1980,2383.0,254305
16,1985,2413.0,255208
16,1990,2458.0,256004
16,1995,2461.0,256641
15,2000,2446.0,257359
15,2005,2478.0,258110
15,2010,2472.0,258574
15,2015,2478.0,259301
15,2020,2509.0,259946
14,2025,2518.0,260619
14,2030,2542.0,261339
14,2035,2502.0,262028
14,2040,2509.0,262764
14,2045,2507.0,263255
13,2050,2501.0,263865
13,2055,2527.0,264837
13,2060,2527.0,265531
13,2065,2528.0,266184
12,2070,2541.0,267152
12,2075,2549.0,267729
12,2080,2561.0,268328
12,2085,2547.0,269092
11,2090,2543.0,269703
11,2095,2515.0,270263
11,2100,2478.0,270650
11,2105,2498.0,271372
11,2110,2510.0,271909
10,2115,2517.0,272676
10,2120,2523.0,273331
10,2125,2555.0,274025
10,2130,2574.0,274944
9,2135,2614.0,275939
9,2140,2628.0,276897
9,2145,2667.0,277753
8,2150,2700.0,278648
8,2155,2680.0,279426
8,2160,2708.0,280357
8,2165,2724.0,281239
7,2170,2720.0,282006
7,2175,2719.0,282668
7,2180,2700.0,283182
7,2185,2725.0,284011
7,2190,2698.0,284670
6,2195,2732.0,285496
6,2200,2785.0,286227
6,2205,2796.0,286956
6,2210,2827.0,287698
5,2215,2827.0,288453
5,2220,2783.0,288850
5,2225,2754.0,289511
5,2230,2731.0,290180
4,2235,2709.0,290837
4,2240,2682.0,291522
4,2245,2633.0,292038
4,2250,2606.0,292614
4,2255,2603.0,293309
3,2260,2569.0,293994
3,2265,2572.0,294989
3,2270,2565.0,295674
3,2275,2563.0,296330
2,2280,2574.0,296987
2,2285,2568.0,297827
2,2290,2569.0,298423
2,2295,2540.0,298830
2,2300,2530.0,299503
2,2305,2469.0,299866
2,2310,2436.0,300537
2,2315,2418.0,301028
2,2320,2435.0,301558
2,2325,2435.0,302088
2,2330,2461.0,303083
2,2335,2488.0,303884
2,2340,2489.0,304414
2,2345,2488.0,304789
2,2350,2490.0,305306
2,2355,2494.0,306061
2,2360,2472.0,306436
2,2365,2413.0,306758
2,2370,2398.0,307276
2,2375,2418.0,308079
2,2380,2400.0,308585
2,2385,2388.0,309256
2,2390,2397.0,309834
2,2395,2386.0,310195
2,2400,2414.0,311190
2,2405,2472.0,312030
2,2410,2476.0,312652
2,2415,2495.0,313451
2,2420,2516.0,314279
2,2425,2558.0,315274
2,2430,2568.0,316208
2,2435,2541.0,316865
2,2440,2568.0,317691
2,2445,2626.0,318615
2,2450,2642.0,319441
2,2455,2667.0,320325
2,2460,2707.0,321151
2,2465,2771.0,322146
2,2470,2819.0,323141
2,2475,2817.0,323967
2,2480,2833.0,324624
2,2485,2844.0,325343
2,2490,2864.0,326064
2,2495,2864.0,326552
2,2500,2812.0,327040
2,2505,2798.0,327866
2,2510,2820.0,328692
2,2515,2844.0,329687
2,2520,2843.0,330517
2,2525,2841.0,331512
2,2530,2838.0,332507
2,2535,2882.0,333395
2,2540,2880.0,334233
2,2545,2878.0,335121
2,2550,2898.0,336115
2,2555,2894.0,337003
2,2560,2922.0,337992
2,2565,2918.0,338930
2,2570,2922.0,339862
2,2575,2934.0,340583
2,2580,2971.0,341471
2,2585,2973.0,342192
2,2590,3000.0,343148
2,2595,3050.0,343939
2,2600,3114.0,344819
2,2605,3138.0,345814
2,2610,3138.0,346430
2,2615,3139.0,347425
2,2620,3130.0,347904
2,2625,3092.0,348400
2,2630,3081.0,349228
2,2635,3055.0,349906
2,2640,3036.0,350563
2,2645,3042.0,351545
2,2650,3021.0,352251
2,2655,3028.0,353124
2,2660,2988.0,353950
2,2665,2994.0,354836
2,2670,2981.0,355664
2,2675,2993.0,356356
2,2680,3005.0,357186
2,2685,3029.0,357940
2,2690,3023.0,358848
2,2695,3045.0,359673
2,2700,3050.0,360389
2,2705,3019.0,361046
2,2710,3031.0,361805
2,2715,3031.0,362508
2,2720,3069.0,363418
2,2725,3115.0,364193
2,2730,3110.0,364893
2,2735,3136.0,365802
2,2740,3159.0,366552
2,2745,3164.0,367496
2,2750,3198.0,368410
2,2755,3193.0,369405
2,2760,3209.0,370091
2,2765,3227.0,371034
2,2770,3193.0,371621
2,2775,3215.0,372429
2,2780,3222.0,373147
2,2785,3230.0,374142
2,2790,3248.0,375052
2,2795,3261.0,375968
2,2800,3278.0,376885
2,2805,3329.0,377805
2,2810,3332.0,378635
2,2815,3349.0,379461
2,2820,3365.0,380456
2,2825,3395.0,381211
2,2830,3457.0,382027
2,2835,3449.0,382632
2,2840,3460.0,383460
2,2845,3488.0,384213
2,2850,3511.0,385145
2,2855,3531.0,386049
2,2860,3571.0,386896
2,2865,3547.0,387724
2,2870,3618.0,388477
2,2875,3599.0,389152
2,2880,3620.0,389989
2,2885,3637.0,390823
2,2890,3643.0,391743
2,2895,3648.0,392738
2,2900,3647.0,393682
2,2905,3663.0,394473
2,2910,3694.0,395468
2,2915,3698.0,396364
2,2920,3676.0,397113
2,2925,3663.0,398033
2,2930,3635.0,398635
2,2935,3673.0,399407
2,2940,3719.0,400243
2,2945,3685.0,400994
2,2950,3681.0,401830
2,2955,3654.0,402545
2,2960,3652.0,403309
2,2965,3689.0,403982
2,2970,3686.0,404954
2,2975,3707.0,405796
2,2980,3689.0,406791
2,2985,3682.0,407723
2,2990,3689.0,408559
2,2995,3692.0,409473
2,3000,3697.0,410345
2,3005,3695.0,411105
2,3010,3687.0,412020
2,3015,3697.0,412875
2,3020,3722.0,413703
2,3025,3714.0,414582
2,3030,3727.0,415471
2,3035,3718.0,416305
2,3040,3713.0,417161
2,3045,3753.0,417763
2,3050,3743.0,418758
2,3055,3794.0,419436
2,3060,3789.0,420348
2,3065,3783.0,421101
2,3070,3786.0,421718
2,3075,3765.0,422713
2,3080,3788.0,423441
2,3085,3777.0,424033
2,3090,3744.0,424779
2,3095,3738.0,425774
2,3100,3742.0,426466
2,3105,3731.0,427208
2,3110,3744.0,427918
2,3115,3755.0,428504
2,3120,3752.0,429416
2,3125,3769.0,430258
2,3130,3785.0,430854
2,3135,3796.0,431442
2,3140,3753.0,431978
2,3145,3746.0,432747
2,3150,3745.0,433663
2,3155,3725.0,434415
2,3160,3721.0,435410
2,3165,3714.0,436405
2,3170,3720.0,437169
2,3175,3739.0,438101
2,3180,3736.0,438804
2,3185,3769.0,439477
2,3190,3812.0,440216
2,3195,3830.0,440963
2,3200,3831.0,441735
2,3205,3813.0,442340
2,3210,3820.0,442973
2,3215,3821.0,443586
2,3220,3837.0,444289
2,3225,3817.0,445011
2,3230,3817.0,445690
2,3235,3822.0,446384
2,3240,3874.0,446993
2,3245,3853.0,447516
2,3250,3866.0,448264
2,3255,3884.0,448899
2,3260,3910.0,449524
2,3265,3915.0,450188
2,3270,3906.0,450954
2,3275,3929.0,451610
2,3280,3931.0,452326
2,3285,3928.0,453004
2,3290,3900.0,453527
2,3295,3900.0,454299
2,3300,3898.0,455071
2,3305,3932.0,455774
2,3310,3930.0,456532
2,3315,3928.0,457156
2,3320,3931.0,457793
2,3325,3957.0,458632
2,3330,3929.0,459196
2,3335,3902.0,459903
2,3340,3902.0,460505
2,3345,3909.0,461103
2,3350,3904.0,461759
2,3355,3901.0,462488
2,3360,3894.0,463281
2,3365,3895.0,464037
2,3370,3891.0,464704
2,3375,3887.0,465488
2,3380,3887.0,466254
2,3385,3877.0,467096
2,3390,3893.0,467756
2,3395,3862.0,468347
2,3400,3868.0,469094
2,3405,3869.0,469769
2,3410,3869.0,470443
2,3415,3863.0,471286
2,3420,3860.0,472123
2,3425,3862.0,472818
2,3430,3878.0,473661
2,3435,3905.0,474350
2,3440,3901.0,475038
2,3445,3921.0,475728
2,3450,3923.0,476374
2,3455,3925.0,477137
2,3460,3913.0,477688
2,3465,3922.0,478455
2,3470,3915.0,479101
2,3475,3907.0,479944
2,3480,3898.0,480788
2,3485,3909.0,481466
2,3490,3864.0,482057
2,3495,3887.0,482801
2,3500,3859.0,483349
2,3505,3848.0,484064
2,3510,3840.0,484637
2,3515,3836.0,485406
2,3520,3825.0,486232
2,3525,3822.0,486997
2,3530,3805.0,487576
2,3535,3807.0,488247
2,3540,3811.0,488855
2,3545,3812.0,489457
2,3550,3818.0,490213
2,3555,3793.0,490749
2,3560,3800.0,491393
2,3565,3801.0,492018
2,3570,3822.0,492769
2,3575,3829.0,493530
2,3580,3824.0,494064
2,3585,3826.0,494655
2,3590,3863.0,495488
2,3595,3875.0,496104
2,3600,3888.0,496800
2,3605,3883.0,497488
2,3610,3891.0,498185
2,3615,3899.0,498871
2,3620,3913.0,499475
2,3625,3917.0,500313
2,3630,3916.0,500987
2,3635,3914.0,501753
2,3640,3911.0,502600
2,3645,3909.0,503293
2,3650,3898.0,504026
2,3655,3925.0,504687
2,3660,3923.0,505452
2,3665,3918.0,506227
2,3670,3924.0,506991
2,3675,3926.0,507758
2,3680,3942.0,508457
2,3685,3927.0,509223
2,3690,3904.0,509966
2,3695,3899.0,510723
2,3700,3894.0,511573
2,3705,3907.0,512403
2,3710,3891.0,513105
2,3715,3893.0,513781
2,3720,3860.0,514452
2,3725,3852.0,515215
2,3730,3880.0,515797
2,3735,3849.0,516379
2,3740,3841.0,517056
2,3745,3835.0,517739
2,3750,3834.0,518397
2,3755,3830.0,519101
2,3760,3840.0,519771
2,3765,3833.0,520686
2,3770,3810.0,521407
2,3775,3809.0,522168
2,3780,3794.0,522952
2,3785,3785.0,523675
2,3790,3812.0,524575
2,3795,3815.0,525342
2,3800,3801.0,526022
2,3805,3802.0,526795
2,3810,3813.0,527549
2,3815,3798.0,528164
2,3820,3823.0,528919
2,3825,3830.0,529595
2,3830,3830.0,530366
2,3835,3810.0,530885
2,3840,3819.0,531560
2,3845,3822.0,532555
2,3850,3830.0,533477
2,3855,3830.0,534272
2,3860,3820.0,535191
2,3865,3812.0,535808
2,3870,3836.0,536646
2,3875,3835.0,537498
2,3880,3826.0,538197
2,3885,3850.0,538810
2,3890,3864.0,539405
2,3895,3832.0,540155
2,3900,3859.0,540841
2,3905,3853.0,541763
2,3910,3857.0,542526
2,3915,3873.0,543120
2,3920,3866.0,543845
2,3925,3840.0,544432
2,3930,3839.0,545272
2,3935,3890.0,546194
2,3940,3886.0,547037
2,3945,3862.0,547558
2,3950,3833.0,548231
2,3955,3799.0,548888
2,3960,3808.0,549567
2,3965,3827.0,550329
2,3970,3823.0,551051
2,3975,3820.0,551807
2,3980,3843.0,552646
2,3985,3814.0,553253
2,3990,3789.0,553790
2,3995,3819.0,554561
2,4000,3829.0,555167
2,4005,3837.0,555845
2,4010,3836.0,556618
2,4015,3835.0,557213
2,4020,3849.0,557891
2,4025,3879.0,558485
2,4030,3880.0,559081
2,4035,3879.0,559833
2,4040,3857.0,560488
2,4045,3879.0,561246
2,4050,3916.0,561865
2,4055,3954.0,562632
2,4060,3959.0,563320
2,4065,3958.0,563951
2,4070,3961.0,564637
2,4075,3965.0,565392
2,4080,3968.0,566063
2,4085,3988.0,566821
2,4090,4012.0,567500
2,4095,4016.0,568108
2,4100,3983.0,568865
2,4105,3983.0,569629
2,4110,3979.0,570446
2,4115,3953.0,571048
2,4120,3927.0,571656
2,4125,3925.0,572408
2,4130,3926.0,573164
2,4135,3925.0,573847
2,4140,3949.0,574524
2,4145,3953.0,575272
2,4150,3944.0,575948
2,4155,3944.0,576554
2,4160,3923.0,577369
2,4165,3915.0,578216
2,4170,3907.0,579028
2,4175,3907.0,579784
2,4180,3889.0,580701
2,4185,3876.0,581530
2,4190,3863.0,582270
2,4195,3823.0,582940
2,4200,3855.0,583584
2,4205,3852.0,584364
2,4210,3842.0,585120
2,4215,3860.0,585796
2,4220,3883.0,586480
2,4225,3883.0,587116
2,4230,3883.0,587811
2,4235,3878.0,588667
2,4240,3880.0,589340
2,4245,3882.0,589929
2,4250,3891.0,590516
2,4255,3886.0,591230
2,4260,3907.0,591837
2,4265,3918.0,592430
2,4270,3924.0,593113
2,4275,3924.0,593873
2,4280,3943.0,594479
2,4285,3964.0,595085
2,4290,3973.0,595851
2,4295,4005.0,596606
2,4300,4005.0,597362
2,4305,4006.0,598122
2,4310,4023.0,598793
2,4315,4028.0,599556
2,4320,4027.0,600398
2,4325,4013.0,601125
2,4330,3987.0,601735
2,4335,3990.0,602357
2,4340,3990.0,603133
2,4345,3989.0,603912
2,4350,3985.0,604612
2,4355,3966.0,605365
2,4360,3955.0,606089
2,4365,3953.0,606778
2,4370,3950.0,607533
2,4375,3953.0,608126
2,4380,3946.0,608791
2,4385,3933.0,609466
2,4390,3942.0,610082
2,4395,3922.0,610605
2,4400,3920.0,611272
2,4405,3922.0,612027
2,4410,3921.0,612704
2,4415,3924.0,613372
2,4420,3898.0,613960
2,4425,3910.0,614858
2,4430,3937.0,615531
2,4435,3943.0,616199
2,4440,3941.0,616970
2,4445,3940.0,617571
2,4450,3929.0,618243
2,4455,3948.0,619076
2,4460,3960.0,619668
2,4465,3952.0,620327
2,4470,3959.0,621034
2,4475,3960.0,621631
2,4480,3958.0,622377
2,4485,3972.0,622978
2,4490,3971.0,623584
2,4495,3997.0,624192
2,4500,3984.0,625048
2,4505,3957.0,625562
2,4510,3959.0,626228
2,4515,3935.0,627149
2,4520,3955.0,627913
2,4525,3957.0,628601
2,4530,3957.0,629214
2,4535,3958.0,629821
2,4540,3952.0,630572
2,4545,3955.0,631172
2,4550,3968.0,631854
2,4555,3975.0,632461
2,4560,3966.0,633212
2,4565,3976.0,633818
2,4570,3976.0,634499
2,4575,3976.0,635124
2,4580,3984.0,635716
2,4585,3968.0,636555
2,4590,3964.0,637234
2,4595,3964.0,637840
2,4600,3974.0,638637
2,4605,4000.0,639293
2,4610,4000.0,639894
2,4615,3993.0,640564
2,4620,4000.0,641255
2,4625,3998.0,642167
2,4630,3986.0,643001
2,4635,3984.0,643861
2,4640,3985.0,644627
2,4645,3985.0,645224
2,4650,3984.0,645805
2,4655,3976.0,646599
2,4660,3983.0,647253
2,4665,3982.0,647850
2,4670,3983.0,648469
2,4675,3979.0,649082
2,4680,3979.0,649686
2,4685,3992.0,650467
2,4690,3989.0,651299
2,4695,3984.0,652220
2,4700,3987.0,652983
2,4705,3965.0,653602
2,4710,3936.0,654220
2,4715,3969.0,654804
2,4720,3971.0,655538
2,4725,3976.0,656134
2,4730,3986.0,656811
2,4735,3987.0,657430
2,4740,3988.0,658099
2,4745,3987.0,658709
2,4750,3973.0,659265
2,4755,3980.0,659939
2,4760,3981.0,660575
2,4765,3952.0,661151
2,4770,3939.0,661816
2,4775,3940.0,662545
2,4780,3926.0,663112
2,4785,3923.0,663812
2,4790,3913.0,664362
2,4795,3904.0,665123
2,4800,3906.0,665795
2,4805,3922.0,666521
2,4810,3948.0,667238
2,4815,3934.0,667839
2,4820,3934.0,668518
2,4825,3932.0,669116
2,4830,3927.0,669866
2,4835,3897.0,670511
2,4840,3899.0,671128
2,4845,3899.0,671726
2,4850,3913.0,672444
2,4855,3909.0,673137
2,4860,3904.0,673856
2,4865,3932.0,674480
2,4870,3942.0,675159
2,4875,3926.0,675784
2,4880,3940.0,676382
2,4885,3946.0,676980
2,4890,3956.0,677595
2,4895,3972.0,678183
2,4900,3916.0,678603
2,4905,3920.0,679391
2,4910,3907.0,679959
2,4915,3896.0,680740
2,4920,3896.0,681417
2,4925,3882.0,681973
2,4930,3890.0,682575
2,4935,3921.0,683172
2,4940,3917.0,683933
2,4945,3911.0,684607
2,4950,3915.0,685200
2,4955,3909.0,685943
2,4960,3913.0,686561
2,4965,3915.0,687165
2,4970,3918.0,687771
2,4975,3926.0,688446
2,4980,3925.0,689038
2,4985,3915.0,689800
2,4990,3922.0,690487
2,4995,3906.0,691201
2,5000,3964.0,691786
2,5005,3969.0,692372
2,5010,3984.0,692973
2,5015,4009.0,693573
2,5020,4010.0,694190
2,5025,4018.0,694880
2,5030,4011.0,695556
2,5035,4009.0,696231
2,5040,4011.0,696983
2,5045,4009.0,697664
2,5050,4009.0,698265
2,5055,4020.0,698877
2,5060,4018.0,699549
2,5065,4012.0,700236
2,5070,3997.0,700941
2,5075,4007.0,701604
2,5080,4008.0,702201
2,5085,4017.0,702869
2,5090,3985.0,703454
2,5095,3971.0,704022
2,5100,3967.0,704709
2,5105,3967.0,705310
2,5110,3966.0,705987
2,5115,3963.0,706591
2,5120,3938.0,707288
2,5125,3945.0,707931
2,5130,3952.0,708602
2,5135,3955.0,709235
2,5140,3963.0,709839
2,5145,3970.0,710440
2,5150,3969.0,711033
2,5155,3961.0,711699
2,5160,3957.0,712382
2,5165,3960.0,713058
2,5170,3976.0,713651
2,5175,3974.0,714350
2,5180,3975.0,714957
2,5185,3967.0,715538
2,5190,3999.0,716226
2,5195,3999.0,716819
2,5200,4000.0,717495
2,5205,3996.0,718241
2,5210,3995.0,718892
2,5215,3998.0,719494
2,5220,4023.0,720124
2,5225,4022.0,720804
2,5230,3993.0,721329
2,5235,3993.0,721930
2,5240,3986.0,722763
2,5245,3986.0,723458
2,5250,3981.0,724148
2,5255,3988.0,724737
2,5260,3994.0,725431
2,5265,3996.0,726070
2,5270,3993.0,726662
2,5275,3985.0,727334
2,5280,3981.0,727997
2,5285,3979.0,728741
2,5290,3978.0,729334
2,5295,4008.0,729952
2,5300,4004.0,730696
2,5305,4008.0,731297
2,5310,4011.0,731895
2,5315,4011.0,732497
2,5320,4012.0,733099
2,5325,3990.0,733726
2,5330,4018.0,734312
2,5335,4018.0,734912
2,5340,3995.0,735514
2,5345,3997.0,736108
2,5350,4003.0,736708
2,5355,3971.0,737241
2,5360,3971.0,737886
2,5365,3970.0,738579
2,5370,3966.0,739245
2,5375,3976.0,739849
2,5380,3979.0,740455
2,5385,3987.0,741051
2,5390,3967.0,741880
2,5395,3965.0,742478
2,5400,3970.0,743152
2,5405,3970.0,743737
2,5410,3966.0,744428
2,5415,3960.0,745065
2,5420,3922.0,745634
2,5425,3945.0,746235
2,5430,3942.0,746883
2,5435,3935.0,747560
2,5440,3962.0,748340
2,5445,3961.0,748952
2,5450,3957.0,749642
2,5455,3986.0,750254
2,5460,3986.0,750902
2,5465,3966.0,751526
2,5470,3961.0,752095
2,5475,3962.0,752704
2,5480,3957.0,753386
2,5485,3949.0,754151
2,5490,3970.0,754760
2,5495,3971.0,755375
2,5500,3965.0,755952
2,5505,3959.0,756620
2,5510,3963.0,757230
2,5515,3965.0,757909
2,5520,4002.0,758500
2,5525,3993.0,759259
2,5530,3996.0,759905
2,5535,3985.0,760604
2,5540,3988.0,761198
2,5545,3983.0,761954
2,5550,3976.0,762638
2,5555,3976.0,763408
2,5560,3951.0,764011
2,5565,3972.0,764600
2,5570,3970.0,765205
2,5575,3970.0,765815
2,5580,3975.0,766442
2,5585,3978.0,767027
2,5590,3979.0,767639
2,5595,3972.0,768421
2,5600,3963.0,769178
2,5605,3969.0,769773
2,5610,3969.0,770389
2,5615,3968.0,771146
2,5620,3966.0,771817
2,5625,3974.0,772466
2,5630,3973.0,773058
2,5635,3989.0,773664
2,5640,3954.0,774338
2,5645,3958.0,775019
2,5650,3968.0,775649
2,5655,3963.0,776332
2,5660,3988.0,776938
2,5665,3989.0,777528
2,5670,4002.0,778129
2,5675,4002.0,778738
2,5680,3990.0,779509
2,5685,3998.0,780101
2,5690,3994.0,780701
2,5695,4002.0,781315
2,5700,4018.0,781943
2,5705,4018.0,782527
2,5710,4016.0,783204
2,5715,4017.0,783876
2,5720,4019.0,784490
2,5725,4020.0,785119
2,5730,4020.0,785717
2,5735,4022.0,786335
2,5740,4046.0,786966
2,5745,4047.0,787558
2,5750,4048.0,788157
2,5755,4052.0,788838
2,5760,4051.0,789520
2,5765,4047.0,790202
2,5770,4046.0,790807
2,5775,4042.0,791442
2,5780,4055.0,792039
2,5785,4055.0,792652
2,5790,4057.0,793242
2,5795,4054.0,793901
2,5800,4054.0,794578
2,5805,4045.0,795252
2,5810,4046.0,795856
2,5815,4038.0,796429
2,5820,4037.0,797043
2,5825,4037.0,797647
2,5830,4037.0,798257
2,5835,4037.0,798869
2,5840,4039.0,799559
2,5845,4033.0,800238
2,5850,4033.0,800827
2,5855,4035.0,801475
2,5860,4037.0,802080
2,5865,4041.0,802689
2,5870,4042.0,803309
2,5875,4044.0,803992
2,5880,4043.0,804595
2,5885,4043.0,805213
2,5890,4038.0,805808
2,5895,4034.0,806468
2,5900,4029.0,807166
2,5905,4038.0,807793
2,5910,4034.0,808446
2,5915,4045.0,809049
2,5920,4045.0,809741
2,5925,4038.0,810544
2,5930,4033.0,811231
2,5935,4032.0,811830
2,5940,4032.0,812497
2,5945,4038.0,813175
2,5950,4036.0,813785
2,5955,4038.0,814368
2,5960,4030.0,815050
2,5965,4026.0,815663
2,5970,4026.0,816333
2,5975,4028.0,816947
2,5980,4027.0,817659
2,5985,4024.0,818330
2,5990,4030.0,818923
2,5995,4014.0,819612
2,6000,4015.0,820287
2,6005,4007.0,820987
2,6010,4012.0,821576
2,6015,4012.0,822182
2,6020,4013.0,822779
2,6025,3965.0,823209
2,6030,3943.0,823724
2,6035,3923.0,824269
2,6040,3928.0,824873
2,6045,3925.0,825471
2,6050,3920.0,826154
2,6055,3919.0,826847
2,6060,3924.0,827433
2,6065,3925.0,828117
2,6070,3926.0,828715
2,6075,3925.0,829311
2,6080,3924.0,829959
2,6085,3926.0,830628
2,6090,3910.0,831361
2,6095,3931.0,832032
2,6100,3935.0,832676
2,6105,3942.0,833363
2,6110,3939.0,834063
2,6115,3923.0,834898
2,6120,3912.0,835624
2,6125,3968.0,836214
2,6130,3997.0,836817
2,6135,4017.0,837486
2,6140,4017.0,838156
2,6145,3987.0,838752
2,6150,3986.0,839563
2,6155,3988.0,840153
2,6160,3992.0,840763
2,6165,3994.0,841378
2,6170,3993.0,842051
2,6175,3990.0,842642
2,6180,3992.0,843271
2,6185,3968.0,843783
2,6190,3985.0,844377
2,6195,3986.0,845002
2,6200,3987.0,845601
2,6205,3974.0,846287
2,6210,3951.0,847043
2,6215,3968.0,847650
2,6220,3980.0,848283
2,6225,3978.0,848961
2,6230,3977.0,849548
2,6235,3975.0,850312
2,6240,3978.0,850982
2,6245,4007.0,851597
2,6250,4011.0,852187
2,6255,4011.0,852769
2,6260,4006.0,853441
2,6265,3998.0,854274
2,6270,3997.0,854943
2,6275,3995.0,855622
2,6280,3994.0,856300
2,6285,4017.0,856894
2,6290,4015.0,857489
2,6295,4015.0,858095
2,6300,3981.0,858682
2,6305,3988.0,859355
2,6310,4014.0,859972
2,6315,4014.0,860622
2,6320,4005.0,861388
2,6325,4007.0,861987
2,6330,4002.0,862572
2,6335,3998.0,863160
2,6340,3992.0,863878
2,6345,3977.0,864423
2,6350,3980.0,865024
2,6355,3976.0,865681
2,6360,3980.0,866291
2,6365,3989.0,866891
2,6370,3991.0,867493
2,6375,3995.0,868171
2,6380,3996.0,868758
2,6385,3998.0,869343
2,6390,4000.0,869937
2,6395,3999.0,870616
2,6400,4032.0,871204
2,6405,4030.0,871802
2,6410,4027.0,872393
2,6415,4009.0,873035
2,6420,4013.0,873674
2,6425,4012.0,874267
2,6430,4015.0,874880
2,6435,4015.0,875634
2,6440,4012.0,876323
2,6445,4024.0,877049
2,6450,4009.0,877691
2,6455,4011.0,878375
2,6460,4011.0,878973
2,6465,4010.0,879612
2,6470,4010.0,880218
2,6475,4011.0,880817
2,6480,4011.0,881410
2,6485,4010.0,882017
2,6490,4005.0,882698
2,6495,3999.0,883376
2,6500,3971.0,883887
2,6505,3979.0,884486
2,6510,3981.0,885074
2,6515,3998.0,885665
2,6520,3997.0,886428
2,6525,3986.0,886997
2,6530,3989.0,887601
2,6535,3978.0,888158
2,6540,3975.0,888891
2,6545,3981.0,889487
2,6550,3994.0,890176
2,6555,3984.0,891002
2,6560,3985.0,891601
2,6565,3954.0,892193
2,6570,3942.0,892801
2,6575,3940.0,893417
2,6580,3941.0,894028
2,6585,3941.0,894634
2,6590,3917.0,895148
2,6595,3908.0,895693
2,6600,3936.0,896289
2,6605,3935.0,896902
2,6610,3936.0,897498
2,6615,3936.0,898089
2,6620,3937.0,898681
2,6625,3944.0,899354
2,6630,3944.0,899957
2,6635,3933.0,900461
2,6640,3946.0,901046
2,6645,3932.0,901723
2,6650,3934.0,902314
2,6655,3935.0,902988
2,6660,3931.0,903681
2,6665,3936.0,904266
2,6670,3945.0,904865
2,6675,3946.0,905458
2,6680,3940.0,906136
2,6685,3939.0,906812
2,6690,3968.0,907405
2,6695,3979.0,908007
2,6700,3973.0,908617
2,6705,3924.0,909062
2,6710,3924.0,909661
2,6715,3924.0,910341
2,6720,3928.0,910960
2,6725,3931.0,911553
2,6730,3930.0,912143
2,6735,3958.0,912738
2,6740,3928.0,913263
2,6745,3944.0,913858
2,6750,3944.0,914461
2,6755,3945.0,915025
2,6760,3941.0,915775
2,6765,3968.0,916370
2,6770,3941.0,916889
2,6775,3943.0,917483
2,6780,3917.0,918047
2,6785,3918.0,918672
2,6790,3918.0,919259
2,6795,3921.0,919942
2,6800,3926.0,920541
2,6805,3967.0,921142
2,6810,3966.0,921824
2,6815,3967.0,922417
2,6820,3966.0,923006
2,6825,3968.0,923607
2,6830,3968.0,924196
2,6835,3962.0,924871
2,6840,3987.0,925543
2,6845,3985.0,926139
2,6850,3985.0,926754
2,6855,3988.0,927454
2,6860,3996.0,928061
2,6865,3996.0,928653
2,6870,4025.0,929300
2,6875,4019.0,929993
2,6880,4046.0,930673
2,6885,4045.0,931353
2,6890,4045.0,931958
2,6895,4046.0,932556
2,6900,4046.0,933233
2,6905,4049.0,933914
2,6910,4050.0,934535
2,6915,4049.0,935204
2,6920,4050.0,935847
2,6925,4042.0,936445
2,6930,4036.0,937143
2,6935,4038.0,937822
2,6940,4042.0,938426
2,6945,4044.0,939032
2,6950,4044.0,939628
2,6955,4024.0,940244
2,6960,4021.0,940925
2,6965,4018.0,941679
2,6970,4018.0,942348
2,6975,4024.0,942967
2,6980,3999.0,943473
2,6985,3999.0,944185
2,6990,3996.0,944790
2,6995,3998.0,945385
2,7000,3968.0,945976
2,7005,3971.0,946571
2,7010,3965.0,947271
2,7015,3961.0,947957
2,7020,3960.0,948557
2,7025,3965.0,949169
2,7030,3972.0,949765
2,7035,3972.0,950381
2,7040,3972.0,950975
2,7045,3961.0,951621
2,7050,3946.0,952164
2,7055,3971.0,952775
2,7060,3973.0,953380
2,7065,3976.0,953970
2,7070,3976.0,954570
2,7075,3960.0,955126
2,7080,3990.0,955730
2,7085,3991.0,956326
2,7090,3992.0,956922
2,7095,3974.0,957459
2,7100,4006.0,958051
2,7105,3997.0,958680
2,7110,3997.0,959320
2,7115,3997.0,959961
2,7120,3999.0,960573
2,7125,3996.0,961248
2,7130,3992.0,961922
2,7135,3997.0,962513
2,7140,3981.0,963053
2,7145,3992.0,963648
2,7150,4008.0,964243
2,7155,4002.0,964834
2,7160,4003.0,965420
2,7165,4003.0,966017
2,7170,4004.0,966608
2,7175,4020.0,967210
2,7180,4020.0,967818
2,7185,4016.0,968449
2,7190,4012.0,969122
2,7195,4028.0,969727
2,7200,4028.0,970329
2,7205,4039.0,970949
2,7210,4043.0,971621
2,7215,4046.0,972228
2,7220,4043.0,972919
2,7225,4049.0,973518
2,7230,4053.0,974126
2,7235,4046.0,974873
2,7240,4058.0,975502
2,7245,4058.0,976103
2,7250,4057.0,976713
2,7255,4065.0,977309
2,7260,4064.0,977899
2,7265,4062.0,978568
2,7270,4061.0,979168
2,7275,4057.0,979815
2,7280,4057.0,980410
2,7285,4062.0,981025
2,7290,4068.0,981628
2,7295,4066.0,982390
2,7300,4062.0,983084
2,7305,4064.0,983689
2,7310,4066.0,984286
2,7315,4066.0,984899
2,7320,4067.0,985506
2,7325,4065.0,986181
2,7330,4059.0,986805
2,7335,4050.0,987379
2,7340,4047.0,988156
2,7345,4042.0,988831
2,7350,4017.0,989353
2,7355,4017.0,989958
2,7360,4016.0,990663
2,7365,4017.0,991285
2,7370,4014.0,991896
2,7375,4001.0,992659
2,7380,4001.0,993256
2,7385,3981.0,993887
2,7390,3975.0,994480
2,7395,3975.0,995081
2,7400,3978.0,995682
2,7405,3977.0,996277
2,7410,3975.0,996897
2,7415,3975.0,997503
2,7420,3950.0,998016
2,7425,3947.0,998778
2,7430,3952.0,999364
2,7435,3967.0,999965
2,7440,3975.0,1000554
2,7445,3950.0,1001071
2,7450,3976.0,1001667
2,7455,3976.0,1002261
2,7460,3961.0,1002816
2,7465,3962.0,1003407
2,7470,3964.0,1004011
2,7475,3981.0,1004622
2,7480,3971.0,1005294
2,7485,3987.0,1005905
2,7490,3962.0,1006458
2,7495,3965.0,1007130
2,7500,3961.0,1007722
2,7505,3962.0,1008319
2,7510,3959.0,1008991
2,7515,3960.0,1009590
2,7520,3986.0,1010194
2,7525,3983.0,1010931
2,7530,3952.0,1011446
2,7535,3926.0,1011971
2,7540,3925.0,1012591
2,7545,3955.0,1013194
2,7550,3948.0,1013872
2,7555,3943.0,1014539
2,7560,3960.0,1015150
2,7565,3960.0,1015759
2,7570,3962.0,1016355
2,7575,3954.0,1017003
2,7580,3954.0,1017679
2,7585,3957.0,1018358
2,7590,3987.0,1018957
2,7595,3986.0,1019633
2,7600,3988.0,1020364
2,7605,3986.0,1020956
2,7610,3985.0,1021637
2,7615,3984.0,1022313
2,7620,3984.0,1022926
2,7625,3978.0,1023497
2,7630,3999.0,1024155
2,7635,4026.0,1024763
2,7640,4025.0,1025360
2,7645,4025.0,1025966
2,7650,4002.0,1026478
2,7655,3979.0,1027075
2,7660,3979.0,1027690
2,7665,3973.0,1028418
2,7670,3972.0,1029088
2,7675,3974.0,1029703
2,7680,3955.0,1030214
2,7685,3955.0,1030820
2,7690,3956.0,1031437
2,7695,3953.0,1032066
2,7700,3947.0,1032828
2,7705,3946.0,1033515
2,7710,3951.0,1034124
2,7715,3952.0,1034724
2,7720,3951.0,1035331
2,7725,3954.0,1036052
2,7730,3965.0,1036646
2,7735,3963.0,1037241
2,7740,3965.0,1037841
2,7745,3963.0,1038518
2,7750,3993.0,1039120
2,7755,4004.0,1039669
2,7760,4004.0,1040265
2,7765,3991.0,1040919
2,7770,3992.0,1041507
2,7775,3998.0,1042102
2,7780,4012.0,1042642
2,7785,4013.0,1043231
2,7790,4012.0,1043820
2,7795,4017.0,1044421
2,7800,3995.0,1044937
2,7805,3987.0,1045601
2,7810,3987.0,1046280
2,7815,3988.0,1046882
2,7820,3989.0,1047569
2,7825,3999.0,1048154
2,7830,3999.0,1048745
2,7835,4001.0,1049336
2,7840,4001.0,1049937
2,7845,4003.0,1050524
2,7850,4002.0,1051125
2,7855,4012.0,1051779
2,7860,4012.0,1052375
2,7865,4012.0,1052915
2,7870,4005.0,1053673
2,7875,4003.0,1054275
2,7880,4018.0,1054865
2,7885,4017.0,1055464
2,7890,4011.0,1056059
2,7895,3998.0,1056719
2,7900,4021.0,1057397
2,7905,4032.0,1057999
2,7910,4025.0,1058839
2,7915,3983.0,1059438
2,7920,3983.0,1060048
2,7925,3982.0,1060740
2,7930,3981.0,1061338
2,7935,3979.0,1061965
2,7940,3975.0,1062574
2,7945,3973.0,1063171
2,7950,3971.0,1063840
2,7955,3977.0,1064460
2,7960,3976.0,1065063
2,7965,3994.0,1065746
2,7970,3999.0,1066340
2,7975,4000.0,1066949
2,7980,3994.0,1067612
2,7985,3991.0,1068213
2,7990,3997.0,1068819
2,7995,4010.0,1069429
2,8000,4008.0,1070105
2,8005,4006.0,1070713
2,8010,4012.0,1071379
2,8015,4047.0,1072050
2,8020,4022.0,1072581
2,8025,4011.0,1073160
2,8030,4001.0,1073838
2,8035,4003.0,1074434
2,8040,4003.0,1075106
2,8045,4004.0,1075715
2,8050,4006.0,1076309
2,8055,3976.0,1076830
2,8060,3974.0,1077428
2,8065,3975.0,1078022
2,8070,3976.0,1078607
2,8075,3974.0,1079215
2,8080,3979.0,1079896
2,8085,3982.0,1080508
2,8090,3979.0,1081182
2,8095,3975.0,1081859
2,8100,3985.0,1082455
2,8105,3985.0,1083068
2,8110,3984.0,1083742
2,8115,3988.0,1084422
2,8120,4013.0,1085031
2,8125,4022.0,1085671
2,8130,4006.0,1086177
2,8135,4005.0,1086784
2,8140,4009.0,1087397
2,8145,3996.0,1088071
2,8150,3992.0,1088745
2,8155,4021.0,1089412
2,8160,4023.0,1090097
2,8165,4001.0,1090719
2,8170,3999.0,1091310
2,8175,4000.0,1091928
2,8180,4000.0,1092551
2,8185,3998.0,1093233
2,8190,4002.0,1093835
2,8195,3979.0,1094358
2,8200,3979.0,1094960
2,8205,3981.0,1095559
2,8210,3981.0,1096145
2,8215,3982.0,1096741
2,8220,3981.0,1097411
2,8225,3983.0,1098001
2,8230,4008.0,1098600
2,8235,4004.0,1099284
2,8240,4004.0,1099892
2,8245,4017.0,1100492
2,8250,4011.0,1101161
2,8255,4006.0,1101827
2,8260,4004.0,1102502
2,8265,4018.0,1103250
2,8270,4019.0,1103851
2,8275,4021.0,1104457
2,8280,4022.0,1105064
2,8285,4025.0,1105655
2,8290,3995.0,1106250
2,8295,4022.0,1106843
2,8300,4020.0,1107447
2,8305,4019.0,1108044
2,8310,4020.0,1108678
2,8315,4016.0,1109334
2,8320,4017.0,1109941
2,8325,4019.0,1110531
2,8330,4017.0,1111175
2,8335,4022.0,1111761
2,8340,4021.0,1112364
2,8345,4022.0,1112958
2,8350,4029.0,1113641
2,8355,4036.0,1114230
2,8360,4039.0,1114824
2,8365,4036.0,1115547
2,8370,4031.0,1116188
2,8375,4031.0,1116777
2,8380,4024.0,1117386
2,8385,4024.0,1117994
2,8390,4026.0,1118512
2,8395,4025.0,1119115
2,8400,4026.0,1119712
2,8405,4020.0,1120346
2,8410,4020.0,1121021
2,8415,4021.0,1121654
2,8420,4020.0,1122282
2,8425,4014.0,1122966
2,8430,4017.0,1123617
2,8435,4017.0,1124205
2,8440,3999.0,1124951
2,8445,3999.0,1125551
2,8450,3997.0,1126232
2,8455,3991.0,1126824
2,8460,3986.0,1127495
2,8465,3997.0,1128099
2,8470,4002.0,1128763
2,8475,4002.0,1129359
2,8480,4009.0,1129973
2,8485,4007.0,1130565
2,8490,4034.0,1131150
2,8495,4034.0,1131746
2,8500,4030.0,1132486
2,8505,4032.0,1133149
2,8510,4034.0,1133738
2,8515,4038.0,1134343
2,8520,4026.0,1135089
2,8525,4029.0,1135688
2,8530,4029.0,1136285
2,8535,4029.0,1136869
2,8540,4039.0,1137630
2,8545,4035.0,1138385
2,8550,4036.0,1139014
2,8555,4040.0,1139633
2,8560,4043.0,1140242
2,8565,4041.0,1140842
2,8570,4037.0,1141429
2,8575,4036.0,1142026
2,8580,4018.0,1142677
2,8585,4020.0,1143264
2,8590,4016.0,1143948
2,8595,4015.0,1144646
2,8600,4018.0,1145262
2,8605,4023.0,1145868
2,8610,4022.0,1146457
2,8615,4023.0,1147048
2,8620,4037.0,1147652
2,8625,4040.0,1148254
2,8630,4040.0,1148859
2,8635,4026.0,1149416
2,8640,4035.0,1150007
2,8645,4036.0,1150630
2,8650,4039.0,1151226
2,8655,4041.0,1151829
2,8660,4023.0,1152355
2,8665,4011.0,1152983
2,8670,4014.0,1153701
2,8675,4002.0,1154388
2,8680,4008.0,1154976
2,8685,4006.0,1155650
2,8690,4010.0,1156334
2,8695,4008.0,1157014
2,8700,4003.0,1157616
2,8705,3999.0,1158324
2,8710,3999.0,1159000
2,8715,3997.0,1159601
2,8720,3967.0,1160108
2,8725,3962.0,1160766
2,8730,3962.0,1161369
2,8735,3975.0,1161972
2,8740,3975.0,1162573
2,8745,3978.0,1163206
2,8750,3975.0,1163803
2,8755,3974.0,1164420
2,8760,3990.0,1165111
2,8765,4002.0,1165708
2,8770,3999.0,1166408
2,8775,4011.0,1166997
2,8780,4022.0,1167615
2,8785,4023.0,1168227
2,8790,4018.0,1168919
2,8795,4022.0,1169529
2,8800,4020.0,1170283
2,8805,4015.0,1170864
2,8810,3999.0,1171413
2,8815,4001.0,1172005
2,8820,4030.0,1172596
2,8825,4035.0,1173182
2,8830,4029.0,1173776
2,8835,4020.0,1174535
2,8840,4019.0,1175210
2,8845,4019.0,1175800
2,8850,4021.0,1176411
2,8855,4019.0,1177010
2,8860,4022.0,1177606
2,8865,4022.0,1178277
2,8870,4027.0,1178875
2,8875,4027.0,1179479
2,8880,4027.0,1180078
2,8885,4023.0,1180754
2,8890,4028.0,1181352
2,8895,4026.0,1181941
2,8900,4023.0,1182497
2,8905,4031.0,1183089
2,8910,4019.0,1183585
2,8915,4011.0,1184254
2,8920,4009.0,1184933
2,8925,4009.0,1185536
2,8930,4016.0,1186121
2,8935,4024.0,1186707
2,8940,4015.0,1187285
2,8945,4014.0,1187894
2,8950,4017.0,1188489
2,8955,4020.0,1189096
2,8960,4020.0,1189737
2,8965,4021.0,1190327
2,8970,4021.0,1190938
2,8975,4022.0,1191544
2,8980,4021.0,1192176
2,8985,4026.0,1192772
2,8990,4025.0,1193378
2,8995,4026.0,1193963
2,9000,4036.0,1194559
2,9005,4037.0,1195176
2,9010,4063.0,1195864
2,9015,4051.0,1196411
2,9020,4050.0,1197094
2,9025,4033.0,1197639
2,9030,4030.0,1198234
2,9035,4020.0,1198837
2,9040,4025.0,1199504
2,9045,4022.0,1200102
2,9050,3999.0,1200723
2,9055,3999.0,1201345
2,9060,4000.0,1201969
2,9065,4000.0,1202573
2,9070,3998.0,1203267
2,9075,3996.0,1203876
2,9080,3998.0,1204470
2,9085,3993.0,1205064
2,9090,3990.0,1205685
2,9095,3989.0,1206284
2,9100,3988.0,1206896
2,9105,3988.0,1207500
2,9110,3986.0,1208188
2,9115,3979.0,1208712
2,9120,3983.0,1209307
2,9125,3995.0,1209914
2,9130,3998.0,1210524
2,9135,4009.0,1211132
2,9140,4010.0,1211818
2,9145,4014.0,1212422
2,9150,4032.0,1213096
2,9155,4031.0,1213777
2,9160,4028.0,1214464
2,9165,4028.0,1215070
2,9170,4029.0,1215667
2,9175,4011.0,1216219
2,9180,4011.0,1216815
2,9185,4014.0,1217401
2,9190,4016.0,1217991
2,9195,4017.0,1218588
2,9200,4019.0,1219190
2,9205,4008.0,1219751
2,9210,4011.0,1220351
2,9215,4035.0,1220960
2,9220,4021.0,1221631
2,9225,4022.0,1222294
2,9230,4020.0,1222890
2,9235,4013.0,1223550
2,9240,4015.0,1224160
2,9245,4015.0,1224764
2,9250,4019.0,1225381
2,9255,4002.0,1225918
2,9260,4005.0,1226508
2,9265,4006.0,1227120
2,9270,3983.0,1227792
2,9275,4002.0,1228400
2,9280,4001.0,1228990
2,9285,3991.0,1229717
2,9290,3993.0,1230305
2,9295,3994.0,1230885
2,9300,3993.0,1231483
2,9305,3987.0,1232255
2,9310,3952.0,1232739
2,9315,3940.0,1233418
2,9320,3950.0,1234031
2,9325,3952.0,1234705
2,9330,3952.0,1235296
2,9335,3960.0,1235903
2,9340,3957.0,1236585
2,9345,3956.0,1237182
2,9350,3948.0,1237838
2,9355,3961.0,1238585
2,9360,3936.0,1239108
2,9365,3936.0,1239712
2,9370,3959.0,1240297
2,9375,3959.0,1240906
2,9380,3959.0,1241518
2,9385,3971.0,1242118
2,9390,3971.0,1242721
2,9395,3971.0,1243349
2,9400,3969.0,1243959
2,9405,3986.0,1244543
2,9410,4017.0,1245218
2,9415,4031.0,1245813
2,9420,4008.0,1246338
2,9425,4008.0,1246946
2,9430,4010.0,1247547
2,9435,4009.0,1248170
2,9440,4010.0,1248765
2,9445,4007.0,1249439
2,9450,4015.0,1250031
2,9455,4018.0,1250699
2,9460,4037.0,1251465
2,9465,4030.0,1252138
2,9470,4026.0,1252839
2,9475,4016.0,1253444
2,9480,4007.0,1254023
2,9485,4004.0,1254703
2,9490,4002.0,1255325
2,9495,4000.0,1255924
2,9500,3998.0,1256695
2,9505,3992.0,1257386
2,9510,3998.0,1257985
2,9515,3998.0,1258579
2,9520,3990.0,1259248
2,9525,3992.0,1259836
2,9530,3987.0,1260518
2,9535,3988.0,1261112
2,9540,3989.0,1261710
2,9545,3993.0,1262307
2,9550,3985.0,1262980
2,9555,3983.0,1263735
2,9560,3988.0,1264332
2,9565,3994.0,1264918
2,9570,3999.0,1265517
2,9575,4006.0,1266197
2,9580,4016.0,1266794
2,9585,3986.0,1267328
2,9590,3960.0,1267838
2,9595,3954.0,1268593
2,9600,3956.0,1269272
2,9605,3961.0,1269880
2,9610,3961.0,1270488
2,9615,3947.0,1271324
2,9620,3982.0,1271928
2,9625,3981.0,1272520
2,9630,3984.0,1273121
2,9635,3978.0,1273790
2,9640,3976.0,1274383
2,9645,3975.0,1274976
2,9650,3982.0,1275628
2,9655,3985.0,1276233
2,9660,3979.0,1276853
2,9665,3980.0,1277457
2,9670,3981.0,1278055
2,9675,3985.0,1278677
2,9680,3984.0,1279284
2,9685,4009.0,1279871
2,9690,4033.0,1280551
2,9695,4040.0,1281149
2,9700,4032.0,1281748
2,9705,4033.0,1282352
2,9710,4020.0,1282929
2,9715,4034.0,1283526
2,9720,4027.0,1284186
2,9725,4026.0,1284784
2,9730,4018.0,1285457
2,9735,4022.0,1286138
2,9740,4026.0,1286736
2,9745,3997.0,1287243
2,9750,3983.0,1287789
2,9755,3983.0,1288387
2,9760,3989.0,1288975
2,9765,3989.0,1289575
2,9770,3988.0,1290181
2,9775,3970.0,1290780
2,9780,3964.0,1291461
2,9785,3971.0,1292062
2,9790,3976.0,1292656
2,9795,3965.0,1293336
2,9800,3976.0,1293919
2,9805,3976.0,1294512
2,9810,3985.0,1295192
2,9815,3986.0,1295776
2,9820,3992.0,1296369
2,9825,3990.0,1297044
2,9830,3999.0,1297710
2,9835,4001.0,1298354
2,9840,4000.0,1299023
2,9845,4017.0,1299667
2,9850,4032.0,1300292
2,9855,4033.0,1300887
2,9860,4031.0,1301479
2,9865,4031.0,1302090
2,9870,4031.0,1302690
2,9875,4043.0,1303379
2,9880,4050.0,1303985
2,9885,4024.0,1304622
2,9890,4019.0,1305238
2,9895,4029.0,1305847
2,9900,4024.0,1306545
2,9905,4022.0,1307148
2,9910,4023.0,1307916
2,9915,4023.0,1308509
2,9920,4023.0,1309108
2,9925,4027.0,1309713
2,9930,4003.0,1310234
2,9935,4002.0,1310834
2,9940,3972.0,1311344
2,9945,3974.0,1312111
2,9950,3974.0,1312707
2,9955,3973.0,1313300
2,9960,3976.0,1313890
2,9965,3959.0,1314444
2,9970,3955.0,1315120
2,9975,3961.0,1315719
2,9980,3959.0,1316357
2,9985,3963.0,1316982
2,9990,3966.0,1317594
2,9995,3967.0,1318180
2,10000,3941.0,1318706
2,10005,3939.0,1319329
2,10010,3942.0,1319932
2,10015,3930.0,1320510
2,10020,3928.0,1321186
2,10025,3907.0,1321716
2,10030,3928.0,1322392
2,10035,3908.0,1322931
2,10040,3935.0,1323558
2,10045,3936.0,1324212
2,10050,3937.0,1324818
2,10055,3937.0,1325458
2,10060,3936.0,1326062
2,10065,3933.0,1326678
2,10070,3932.0,1327256
2,10075,3932.0,1327856
2,10080,3896.0,1328353
2,10085,3919.0,1328950
2,10090,3919.0,1329541
2,10095,3917.0,1330189
2,10100,3948.0,1330782
2,10105,3952.0,1331387
2,10110,3938.0,1332070
2,10115,3950.0,1332669
2,10120,3918.0,1333264
2,10125,3939.0,1333869
2,10130,3938.0,1334533
2,10135,3955.0,1335222
2,10140,3932.0,1335819
2,10145,3938.0,1336403
2,10150,3937.0,1336997
2,10155,3936.0,1337598
2,10160,3935.0,1338188
2,10165,3954.0,1338791
2,10170,3933.0,1339308
2,10175,3933.0,1339903
2,10180,3971.0,1340517
2,10185,3968.0,1341125
2,10190,3970.0,1341729
2,10195,3965.0,1342459
2,10200,3965.0,1343057
2,10205,3963.0,1343725
2,10210,3976.0,1344326
2,10215,3970.0,1345019
2,10220,4002.0,1345612
2,10225,4001.0,1346217
2,10230,4000.0,1346905
2,10235,4004.0,1347509
2,10240,4027.0,1348140
2,10245,4023.0,1348810
2,10250,4018.0,1349607
2,10255,3989.0,1350178
2,10260,3991.0,1350780
2,10265,3989.0,1351388
2,10270,4011.0,1352089
2,10275,3984.0,1352712
2,10280,3984.0,1353331
2,10285,3984.0,1353949
2,10290,3982.0,1354539
2,10295,3989.0,1355148
2,10300,3983.0,1355729
2,10305,3985.0,1356322
2,10310,3982.0,1357001
2,10315,3988.0,1357610
2,10320,3988.0,1358273
2,10325,3989.0,1358870
2,10330,3995.0,1359485
2,10335,3994.0,1360086
2,10340,3999.0,1360678
2,10345,4007.0,1361293
2,10350,4013.0,1361896
2,10355,4044.0,1362496
2,10360,4044.0,1363086
2,10365,4044.0,1363753
2,10370,4047.0,1364361
2,10375,4072.0,1364961
2,10380,4072.0,1365562
2,10385,4071.0,1366307
2,10390,4052.0,1366848
2,10395,4049.0,1367521
2,10400,4055.0,1368126
2,10405,4052.0,1368725
2,10410,4050.0,1369322
2,10415,4049.0,1369915
2,10420,4052.0,1370511
2,10425,4052.0,1371139
2,10430,4021.0,1371736
2,10435,4022.0,1372342
2,10440,4016.0,1373023
2,10445,4016.0,1373618
2,10450,4010.0,1374213
2,10455,3996.0,1374889
2,10460,3992.0,1375567
2,10465,3975.0,1376197
2,10470,3975.0,1376824
2,10475,3976.0,1377427
2,10480,3949.0,1377958
2,10485,3946.0,1378631
2,10490,3967.0,1379218
2,10495,3970.0,1379840
2,10500,3971.0,1380430
2,10505,3974.0,1381026
2,10510,3971.0,1381756
2,10515,3970.0,1382354
2,10520,3969.0,1382949
2,10525,3961.0,1383622
2,10530,3991.0,1384234
2,10535,3991.0,1384837
2,10540,3997.0,1385432
2,10545,3992.0,1386102
2,10550,3983.0,1386692
2,10555,3994.0,1387372
2,10560,3993.0,1388060
2,10565,4013.0,1388667
2,10570,4014.0,1389254
2,10575,4014.0,1389863
2,10580,4041.0,1390460
2,10585,4015.0,1390971
2,10590,4007.0,1391654
2,10595,4007.0,1392255
2,10600,4007.0,1392863
2,10605,4006.0,1393540
2,10610,4015.0,1394136
2,10615,3983.0,1394669
2,10620,3984.0,1395276
2,10625,3992.0,1395868
2,10630,3979.0,1396618
2,10635,3977.0,1397294
2,10640,3977.0,1397894
2,10645,3962.0,1398467
2,10650,3975.0,1399168
2,10655,3977.0,1399777
2,10660,3978.0,1400389
2,10665,3972.0,1401015
2,10670,3972.0,1401630
2,10675,3972.0,1402236
2,10680,3971.0,1402838
2,10685,4003.0,1403443
2,10690,4009.0,1404045
2,10695,4010.0,1404645
2,10700,4006.0,1405369
2,10705,3998.0,1406061
2,10710,3958.0,1406554
2,10715,3989.0,1407304
2,10720,3988.0,1407916
2,10725,3985.0,1408521
2,10730,3969.0,1409107
2,10735,3942.0,1409629
2,10740,3940.0,1410230
2,10745,3957.0,1410875
2,10750,3959.0,1411476
2,10755,3959.0,1412084
2,10760,3963.0,1412692
2,10765,3962.0,1413367
2,10770,3962.0,1413973
2,10775,3962.0,1414651
2,10780,3959.0,1415330
2,10785,3958.0,1415924
2,10790,3954.0,1416605
2,10795,3954.0,1417203
2,10800,3955.0,1417885
2,10805,3964.0,1418501
2,10810,4004.0,1419102
2,10815,4007.0,1419733
2,10820,4008.0,1420341
2,10825,4009.0,1421034
2,10830,4038.0,1421664
2,10835,4065.0,1422259
2,10840,4067.0,1422853
2,10845,4070.0,1423454
2,10850,4062.0,1424133
2,10855,4061.0,1424837
2,10860,4057.0,1425435
2,10865,4062.0,1426043
2,10870,4044.0,1426678
2,10875,4007.0,1427178
2,10880,4008.0,1427806
2,10885,4009.0,1428416
2,10890,4015.0,1429010
2,10895,4008.0,1429631
2,10900,4010.0,1430237
2,10905,4000.0,1430932
2,10910,3999.0,1431549
2,10915,3965.0,1432045
2,10920,3965.0,1432649
2,10925,3967.0,1433286
2,10930,3965.0,1433882
2,10935,3967.0,1434495
2,10940,3967.0,1435089
2,10945,3967.0,1435697
2,10950,3974.0,1436301
2,10955,3976.0,1436913
2,10960,3978.0,1437520
2,10965,3980.0,1438118
2,10970,3998.0,1438751
2,10975,4034.0,1439393
2,10980,4035.0,1439983
2,10985,4036.0,1440577
2,10990,4032.0,1441170
2,10995,4038.0,1441818
2,11000,4037.0,1442489
2,11005,4034.0,1443056
2,11010,4032.0,1443687
2,11015,4063.0,1444283
2,11020,4061.0,1444888
2,11025,4061.0,1445489
2,11030,4060.0,1446212
2,11035,4055.0,1446903
2,11040,4048.0,1447581
2,11045,4019.0,1448099
2,11050,4015.0,1448747
2,11055,4015.0,1449356
2,11060,4014.0,1449955
2,11065,4011.0,1450634
2,11070,4008.0,1451263
2,11075,4007.0,1451932
2,11080,4009.0,1452545
2,11085,4005.0,1453147
2,11090,4008.0,1453798
2,11095,4009.0,1454384
2,11100,4005.0,1454994
2,11105,4017.0,1455599
2,11110,4018.0,1456204
2,11115,4017.0,1456957
2,11120,4019.0,1457545
2,11125,4012.0,1458242
2,11130,4011.0,1458838
2,11135,4015.0,1459439
2,11140,3991.0,1460057
2,11145,4020.0,1460655
2,11150,4018.0,1461238
2,11155,3988.0,1461746
2,11160,3959.0,1462431
2,11165,3954.0,1463187
2,11170,3958.0,1463790
2,11175,3954.0,1464379
2,11180,3950.0,1464969
2,11185,3952.0,1465591
2,11190,3952.0,1466207
2,11195,3952.0,1466805
2,11200,3952.0,1467453
2,11205,3953.0,1468059
2,11210,3955.0,1468660
2,11215,3953.0,1469349
2,11220,3952.0,1469946
2,11225,3957.0,1470546
2,11230,3961.0,1471161
2,11235,3957.0,1471778
2,11240,3981.0,1472452
2,11245,3979.0,1473081
2,11250,3985.0,1473680
2,11255,4009.0,1474360
2,11260,4037.0,1474984
2,11265,4043.0,1475662
2,11270,4040.0,1476256
2,11275,4047.0,1476855
2,11280,4050.0,1477462
2,11285,4052.0,1478057
2,11290,4053.0,1478676
2,11295,4050.0,1479408
2,11300,4055.0,1480012
2,11305,4047.0,1480766
2,11310,4043.0,1481411
2,11315,4038.0,1482173
2,11320,4034.0,1482859
2,11325,4032.0,1483454
2,11330,4030.0,1484082
2,11335,4034.0,1484685
2,11340,4041.0,1485344
2,11345,4039.0,1486022
2,11350,4039.0,1486681
2,11355,4044.0,1487274
2,11360,4047.0,1487881
2,11365,4049.0,1488493
2,11370,4049.0,1489155
2,11375,4049.0,1489825
2,11380,4019.0,1490415
2,11385,4019.0,1491017
2,11390,4018.0,1491644
2,11395,4021.0,1492253
2,11400,4021.0,1492863
2,11405,4025.0,1493544
2,11410,4029.0,1494168
2,11415,4040.0,1494790
2,11420,4045.0,1495379
2,11425,4045.0,1496046
2,11430,4042.0,1496738
2,11435,4038.0,1497419
2,11440,4037.0,1498012
2,11445,4032.0,1498601
2,11450,4008.0,1499116
2,11455,4008.0,1499707
