% time spent exploring,episodes,mean 100 episode reward,steps
99,5,675.0,627
99,10,488.9,1016
99,15,507.1,1690
99,20,631.6,2496
99,25,675.0,3482
99,30,606.9,4146
99,35,620.6,5096
99,40,592.3,5723
99,45,590.9,6510
99,50,569.4,7255
98,55,551.9,7946
98,60,525.4,8669
98,65,548.4,9659
98,70,530.4,10390
98,75,525.7,11125
98,80,525.3,12002
98,85,528.6,12759
98,90,528.1,13582
98,95,521.3,14269
98,100,522.2,15031
97,105,528.0,15802
97,110,543.0,16593
97,115,540.0,17379
97,120,512.0,18091
97,125,500.0,18823
97,130,513.0,19335
97,135,510.0,19955
97,140,509.0,20546
97,145,508.0,21167
97,150,505.0,21868
97,155,504.0,22565
96,160,512.0,23312
96,165,515.0,24056
96,170,514.0,24428
96,175,531.0,25354
96,180,537.0,26020
96,185,539.0,26865
96,190,548.0,27496
96,195,553.0,27908
96,200,560.0,28615
96,205,540.0,29235
96,210,545.0,29939
96,215,551.0,30584
95,220,548.0,30978
95,225,532.0,31316
95,230,542.0,32078
95,235,535.0,32777
95,240,558.0,33397
95,245,546.0,33800
95,250,554.0,34466
95,255,557.0,34985
95,260,557.0,35578
95,265,562.0,36371
95,270,567.0,36927
95,275,553.0,37659
94,280,550.0,38296
94,285,549.0,38909
94,290,539.0,39560
94,295,536.0,40196
94,300,523.0,40683
94,305,537.0,41481
94,310,527.0,41972
94,315,531.0,42659
94,320,523.0,43457
94,325,534.0,43980
94,330,515.0,44448
94,335,511.0,45047
94,340,489.0,45591
93,345,506.0,46298
93,350,516.0,46983
93,355,514.0,47359
93,360,528.0,47919
93,365,520.0,48523
93,370,525.0,49048
93,375,528.0,49514
93,380,534.0,50187
93,385,531.0,50772
93,390,528.0,51418
93,395,536.0,52248
93,400,553.0,53001
92,405,556.0,53854
92,410,560.0,54385
92,415,550.0,55154
92,420,578.0,55704
92,425,582.0,56390
92,430,584.0,56910
92,435,604.0,57617
92,440,607.0,58153
92,445,607.0,58698
92,450,610.0,59340
92,455,613.0,59911
92,460,606.0,60395
92,465,588.0,60924
91,470,591.0,61621
91,475,610.0,62388
91,480,608.0,63017
91,485,608.0,63681
91,490,627.0,64492
91,495,622.0,65128
91,500,616.0,65662
91,505,616.0,66569
91,510,614.0,67305
91,515,620.0,67965
91,520,611.0,68745
90,525,611.0,69471
90,530,607.0,69995
90,535,587.0,70424
90,540,574.0,70828
90,545,572.0,71341
90,550,563.0,71971
90,555,581.0,72630
90,560,586.0,73275
90,565,609.0,73976
90,570,618.0,74605
90,575,608.0,75350
90,580,614.0,76086
89,585,623.0,76788
89,590,627.0,77723
89,595,636.0,78278
89,600,628.0,78730
89,605,623.0,79556
89,610,639.0,80336
89,615,636.0,80968
89,620,635.0,81449
89,625,631.0,81982
89,630,635.0,82518
89,635,635.0,82868
89,640,652.0,83260
89,645,647.0,83884
88,650,636.0,84428
88,655,616.0,84811
88,660,611.0,85496
88,665,587.0,86226
88,670,586.0,86843
88,675,588.0,87500
88,680,576.0,87798
88,685,568.0,88368
88,690,557.0,88860
88,695,549.0,89154
88,700,548.0,89468
88,705,545.0,89890
88,710,517.0,90412
88,715,529.0,91072
88,720,537.0,91707
87,725,560.0,92460
87,730,578.0,93023
87,735,587.0,93617
87,740,593.0,94315
87,745,598.0,94805
87,750,616.0,95409
87,755,625.0,95843
87,760,643.0,96432
87,765,655.0,96990
87,770,655.0,97654
87,775,655.0,98305
87,780,667.0,99105
86,785,669.0,99623
86,790,675.0,100349
86,795,683.0,100888
86,800,694.0,101526
86,805,694.0,101889
86,810,716.0,102353
86,815,720.0,103084
86,820,711.0,103609
86,825,695.0,104167
86,830,679.0,104648
86,835,679.0,105134
86,840,682.0,105635
86,845,676.0,106030
86,850,679.0,106364
86,855,689.0,106942
85,860,682.0,107581
85,865,675.0,108215
85,870,672.0,108783
85,875,683.0,109542
85,880,685.0,110145
85,885,687.0,110723
85,890,678.0,111279
85,895,679.0,111898
85,900,684.0,112463
85,905,695.0,113051
85,910,692.0,113636
85,915,676.0,114144
85,920,668.0,114525
84,925,676.0,115193
84,930,680.0,115578
84,935,702.0,116476
84,940,689.0,116979
84,945,706.0,117667
84,950,720.0,118496
84,955,714.0,119039
84,960,717.0,119580
84,965,719.0,120057
84,970,725.0,120615
84,975,709.0,121168
84,980,693.0,121526
84,985,694.0,122071
83,990,703.0,122673
83,995,695.0,123117
83,1000,687.0,123566
83,1005,683.0,124148
83,1010,700.0,124898
83,1015,703.0,125284
83,1020,708.0,125836
83,1025,713.0,126450
83,1030,728.0,126934
83,1035,727.0,127544
83,1040,743.0,128169
83,1045,736.0,128703
83,1050,719.0,129411
82,1055,719.0,130110
82,1060,713.0,130697
82,1065,738.0,131537
82,1070,734.0,131968
82,1075,728.0,132408
82,1080,751.0,133030
82,1085,758.0,133652
82,1090,753.0,134199
82,1095,749.0,134525
82,1100,760.0,135156
82,1105,762.0,135677
82,1110,743.0,136132
82,1115,746.0,136510
82,1120,742.0,136828
82,1125,721.0,137239
81,1130,717.0,137910
81,1135,686.0,138315
81,1140,673.0,138709
81,1145,674.0,139439
81,1150,675.0,140020
81,1155,682.0,140604
81,1160,697.0,141249
81,1165,696.0,142043
81,1170,697.0,142445
81,1175,717.0,143381
81,1180,717.0,143918
81,1185,712.0,144390
81,1190,729.0,144966
80,1195,755.0,145474
80,1200,736.0,145792
80,1205,739.0,146345
80,1210,732.0,146816
80,1215,738.0,147492
80,1220,745.0,148029
80,1225,769.0,148795
80,1230,766.0,149246
80,1235,773.0,149670
80,1240,776.0,150099
80,1245,763.0,150393
80,1250,767.0,150909
80,1255,778.0,151577
80,1260,755.0,151958
80,1265,747.0,152672
79,1270,740.0,153076
79,1275,716.0,153312
79,1280,691.0,153798
79,1285,685.0,154096
79,1290,688.0,154931
79,1295,667.0,155323
79,1300,696.0,156033
79,1305,692.0,156575
79,1310,698.0,157116
79,1315,687.0,157610
79,1320,720.0,158502
79,1325,720.0,159063
79,1330,724.0,159581
79,1335,737.0,160074
79,1340,757.0,160704
78,1345,776.0,161236
78,1350,777.0,161810
78,1355,766.0,162311
78,1360,785.0,162852
78,1365,772.0,163164
78,1370,771.0,163458
78,1375,796.0,164079
78,1380,824.0,164884
78,1385,846.0,165450
78,1390,830.0,165890
78,1395,854.0,166569
78,1400,824.0,166831
78,1405,840.0,167460
78,1410,835.0,168076
77,1415,835.0,168523
77,1420,820.0,169031
77,1425,800.0,169379
77,1430,809.0,170195
77,1435,794.0,170559
77,1440,777.0,170857
77,1445,789.0,171528
77,1450,812.0,172394
77,1455,818.0,173125
77,1460,802.0,173612
77,1465,807.0,174058
77,1470,807.0,174260
77,1475,806.0,174949
77,1480,815.0,175493
76,1485,824.0,176409
76,1490,822.0,176992
76,1495,796.0,177330
76,1500,814.0,177874
76,1505,818.0,178659
76,1510,823.0,179162
76,1515,839.0,179697
76,1520,816.0,180126
76,1525,828.0,180867
76,1530,814.0,181171
76,1535,815.0,181656
76,1540,821.0,182105
76,1545,814.0,182653
76,1550,789.0,183323
75,1555,778.0,183845
75,1560,784.0,184509
75,1565,795.0,185192
75,1570,792.0,185400
75,1575,774.0,185859
75,1580,758.0,186543
75,1585,733.0,187288
75,1590,746.0,187958
75,1595,753.0,188346
75,1600,751.0,188945
75,1605,722.0,189474
75,1610,726.0,190011
75,1615,728.0,190730
74,1620,762.0,191456
74,1625,761.0,192209
74,1630,757.0,192720
74,1635,777.0,193487
74,1640,770.0,193912
74,1645,758.0,194435
74,1650,762.0,194990
74,1655,777.0,195810
74,1660,772.0,196289
74,1665,762.0,196849
74,1670,772.0,197423
74,1675,797.0,198340
73,1680,800.0,198983
73,1685,811.0,199745
73,1690,797.0,200214
73,1695,808.0,200795
73,1700,809.0,201277
73,1705,833.0,201984
73,1710,821.0,202373
73,1715,814.0,203037
73,1720,811.0,203887
73,1725,825.0,204614
73,1730,837.0,205345
73,1735,827.0,205727
73,1740,841.0,206411
72,1745,845.0,206960
72,1750,861.0,207536
72,1755,842.0,207926
72,1760,850.0,208422
72,1765,832.0,208644
72,1770,829.0,209068
72,1775,812.0,209460
72,1780,800.0,209808
72,1785,796.0,210442
72,1790,811.0,210996
72,1795,811.0,211777
72,1800,812.0,212203
72,1805,795.0,212497
72,1810,796.0,212765
72,1815,787.0,213193
72,1820,781.0,213722
72,1825,770.0,214283
71,1830,763.0,214735
71,1835,767.0,215195
71,1840,751.0,215511
71,1845,750.0,216114
71,1850,727.0,216604
71,1855,732.0,217065
71,1860,734.0,217632
71,1865,755.0,218099
71,1870,760.0,218425
71,1875,747.0,218783
71,1880,757.0,219439
71,1885,761.0,220067
71,1890,755.0,220660
71,1895,746.0,221084
71,1900,751.0,221722
70,1905,749.0,222281
70,1910,754.0,222601
70,1915,764.0,223240
70,1920,746.0,223553
70,1925,731.0,223956
70,1930,738.0,224733
70,1935,729.0,225188
70,1940,742.0,225902
70,1945,742.0,226467
70,1950,734.0,227026
70,1955,723.0,227583
70,1960,724.0,228315
70,1965,731.0,229084
69,1970,722.0,229743
69,1975,725.0,230220
69,1980,710.0,230860
69,1985,697.0,231855
69,1990,679.0,232331
69,1995,676.0,232768
69,2000,657.0,233425
69,2005,660.0,234073
69,2010,670.0,234866
69,2015,670.0,235315
69,2020,668.0,235714
69,2025,678.0,236363
69,2030,674.0,236923
68,2035,679.0,237581
68,2040,679.0,238142
68,2045,671.0,238549
68,2050,697.0,239330
68,2055,704.0,239803
68,2060,715.0,240582
68,2065,719.0,241285
68,2070,729.0,241796
68,2075,747.0,242267
68,2080,756.0,242736
68,2085,775.0,243408
68,2090,797.0,244015
68,2095,794.0,244368
68,2100,809.0,244893
67,2105,822.0,245579
67,2110,823.0,246205
67,2115,829.0,246813
67,2120,842.0,247211
67,2125,845.0,247625
67,2130,838.0,247829
67,2135,851.0,248393
67,2140,853.0,248823
67,2145,879.0,249434
67,2150,859.0,249919
67,2155,871.0,250493
67,2160,853.0,250912
67,2165,819.0,251140
67,2170,811.0,251488
67,2175,802.0,251941
67,2180,805.0,252442
66,2185,788.0,252894
66,2190,781.0,253584
66,2195,785.0,254098
66,2200,784.0,254658
66,2205,784.0,255030
66,2210,776.0,255430
66,2215,786.0,256088
66,2220,803.0,256754
66,2225,801.0,257157
66,2230,812.0,257579
66,2235,785.0,257751
66,2240,790.0,258225
66,2245,792.0,258882
66,2250,818.0,259665
65,2255,823.0,260270
65,2260,831.0,260866
65,2265,857.0,261418
65,2270,875.0,262025
65,2275,890.0,262856
65,2280,874.0,263084
65,2285,886.0,263842
65,2290,875.0,264163
65,2295,872.0,264518
65,2300,859.0,264796
65,2305,847.0,265304
65,2310,852.0,265761
65,2315,826.0,266304
65,2320,818.0,267091
65,2325,823.0,267609
64,2330,837.0,268214
64,2335,849.0,268602
64,2340,843.0,269172
64,2345,822.0,269681
64,2350,799.0,270214
64,2355,800.0,271053
64,2360,802.0,271706
64,2365,808.0,272153
64,2370,810.0,272891
64,2375,787.0,273145
64,2380,802.0,273718
64,2385,783.0,274219
64,2390,790.0,274767
63,2395,818.0,275653
63,2400,830.0,276177
63,2405,849.0,276772
63,2410,864.0,277684
63,2415,875.0,278204
63,2420,876.0,278800
63,2425,882.0,279650
63,2430,878.0,280498
63,2435,876.0,281022
63,2440,869.0,281697
63,2445,863.0,282063
63,2450,881.0,282941
62,2455,858.0,283465
62,2460,859.0,284148
62,2465,855.0,285046
62,2470,845.0,285624
62,2475,847.0,286097
62,2480,857.0,286965
62,2485,865.0,287635
62,2490,867.0,288217
62,2495,826.0,288463
62,2500,815.0,288828
62,2505,800.0,289255
62,2510,782.0,289875
62,2515,780.0,290404
61,2520,758.0,290912
61,2525,751.0,291725
61,2530,724.0,292195
61,2535,746.0,293190
61,2540,740.0,293658
61,2545,762.0,294508
61,2550,743.0,295040
61,2555,750.0,295727
61,2560,752.0,296323
61,2565,743.0,296764
61,2570,735.0,297449
61,2575,743.0,298263
60,2580,743.0,298950
60,2585,745.0,299770
60,2590,752.0,300765
60,2595,782.0,301258
60,2600,798.0,302253
60,2605,803.0,303083
60,2610,800.0,303579
60,2615,808.0,304447
60,2620,829.0,305261
59,2625,830.0,306256
59,2630,847.0,307069
59,2635,828.0,307651
59,2640,839.0,308292
59,2645,819.0,308840
59,2650,816.0,309342
59,2655,826.0,310094
59,2660,819.0,310847
59,2665,834.0,311590
59,2670,836.0,312402
59,2675,842.0,313220
58,2680,850.0,314215
58,2685,852.0,314879
58,2690,875.0,315610
58,2695,890.0,316500
58,2700,902.0,317186
58,2705,900.0,318034
58,2710,901.0,318397
58,2715,895.0,318933
58,2720,901.0,319656
58,2725,913.0,320510
58,2730,910.0,321163
57,2735,921.0,321838
57,2740,930.0,322509
57,2745,952.0,323504
57,2750,966.0,324148
57,2755,971.0,324717
57,2760,969.0,325166
57,2765,972.0,326136
57,2770,979.0,326795
57,2775,965.0,327346
57,2780,959.0,328166
57,2785,953.0,328503
57,2790,917.0,328973
56,2795,906.0,329822
56,2800,894.0,330454
56,2805,893.0,331251
56,2810,900.0,331781
56,2815,902.0,332379
56,2820,892.0,333037
56,2825,871.0,333371
56,2830,875.0,333928
56,2835,873.0,334607
56,2840,872.0,335467
56,2845,865.0,335942
56,2850,846.0,336325
55,2855,842.0,336876
55,2860,843.0,337331
55,2865,829.0,338002
55,2870,836.0,338345
55,2875,856.0,339276
55,2880,833.0,339629
55,2885,838.0,340050
55,2890,843.0,340407
55,2895,829.0,341036
55,2900,830.0,341613
55,2905,829.0,342265
55,2910,826.0,342846
55,2915,812.0,343171
55,2920,810.0,343706
55,2925,812.0,344334
54,2930,802.0,344677
54,2935,804.0,345334
54,2940,788.0,345564
54,2945,783.0,346045
54,2950,785.0,346291
54,2955,784.0,346977
54,2960,785.0,347395
54,2965,786.0,347878
54,2970,783.0,348625
54,2975,756.0,349115
54,2980,758.0,349339
54,2985,755.0,349955
54,2990,759.0,350516
54,2995,768.0,351253
54,3000,761.0,351735
53,3005,760.0,352362
53,3010,764.0,352938
53,3015,770.0,353270
53,3020,766.0,353732
53,3025,770.0,354304
53,3030,772.0,354784
53,3035,762.0,355390
53,3040,774.0,356200
53,3045,776.0,356863
53,3050,781.0,357099
53,3055,784.0,357757
53,3060,781.0,358365
53,3065,777.0,358847
53,3070,771.0,359659
52,3075,780.0,359998
52,3080,806.0,360993
52,3085,805.0,361511
52,3090,804.0,362009
52,3095,807.0,363004
52,3100,811.0,363602
52,3105,815.0,364265
52,3110,809.0,364763
52,3115,811.0,365227
52,3120,824.0,366053
52,3125,837.0,367035
51,3130,829.0,367352
51,3135,846.0,368347
51,3140,849.0,369272
51,3145,841.0,369738
51,3150,848.0,370407
51,3155,854.0,371269
51,3160,856.0,371770
51,3165,869.0,372503
51,3170,876.0,373222
51,3175,882.0,373778
51,3180,863.0,374404
50,3185,872.0,375216
50,3190,880.0,375933
50,3195,877.0,376549
50,3200,897.0,377304
50,3205,907.0,378164
50,3210,921.0,378784
50,3215,912.0,379083
50,3220,906.0,379733
50,3225,897.0,380549
50,3230,916.0,381236
50,3235,910.0,382005
50,3240,884.0,382145
49,3245,902.0,383053
49,3250,892.0,383333
49,3255,879.0,383674
49,3260,878.0,384083
49,3265,859.0,384601
49,3270,848.0,385076
49,3275,843.0,385529
49,3280,844.0,386186
49,3285,835.0,386552
49,3290,815.0,387109
49,3295,813.0,388014
49,3300,793.0,388622
49,3305,772.0,389226
49,3310,761.0,389907
48,3315,778.0,390591
48,3320,773.0,391281
48,3325,782.0,391938
48,3330,788.0,392806
48,3335,793.0,393623
48,3340,815.0,393963
48,3345,802.0,394612
48,3350,808.0,395123
48,3355,818.0,395884
48,3360,828.0,396693
48,3365,832.0,397348
47,3370,848.0,398158
47,3375,860.0,398728
47,3380,860.0,399455
47,3385,864.0,399999
47,3390,884.0,400670
47,3395,888.0,401496
47,3400,891.0,402193
47,3405,890.0,402890
47,3410,901.0,403872
47,3415,895.0,404507
47,3420,893.0,405091
47,3425,876.0,405567
46,3430,866.0,406193
46,3435,853.0,406701
46,3440,856.0,407685
46,3445,858.0,408667
46,3450,872.0,409309
46,3455,855.0,409807
46,3460,856.0,410490
46,3465,863.0,411044
46,3470,853.0,411553
46,3475,847.0,411924
46,3480,863.0,412790
45,3485,874.0,413589
45,3490,860.0,413963
45,3495,861.0,414670
45,3500,866.0,415511
45,3505,885.0,416249
45,3510,892.0,417012
45,3515,907.0,417876
45,3520,921.0,418571
45,3525,937.0,419221
45,3530,941.0,420071
44,3535,964.0,420932
44,3540,959.0,421355
44,3545,961.0,421990
44,3550,956.0,422639
44,3555,984.0,423467
44,3560,996.0,424270
44,3565,992.0,424892
44,3570,1013.0,425593
44,3575,1014.0,426039
44,3580,1019.0,426791
44,3585,1020.0,427273
44,3590,1027.0,427832
44,3595,1023.0,428383
43,3600,1012.0,428844
43,3605,1007.0,429332
43,3610,992.0,430041
43,3615,984.0,430625
43,3620,973.0,431268
43,3625,964.0,431765
43,3630,964.0,432095
43,3635,961.0,432849
43,3640,968.0,433509
43,3645,949.0,433793
43,3650,958.0,434333
43,3655,943.0,434933
43,3660,921.0,435259
43,3665,924.0,435765
42,3670,916.0,436492
42,3675,926.0,437029
42,3680,908.0,437480
42,3685,906.0,437878
42,3690,910.0,438274
42,3695,899.0,438665
42,3700,897.0,439039
42,3705,894.0,439696
42,3710,887.0,439982
42,3715,892.0,440537
42,3720,896.0,441068
42,3725,904.0,441476
42,3730,909.0,442150
42,3735,885.0,442414
42,3740,879.0,443141
42,3745,905.0,443547
42,3750,882.0,443759
41,3755,894.0,444258
41,3760,914.0,445090
41,3765,924.0,445705
41,3770,916.0,445963
41,3775,906.0,446477
41,3780,910.0,447020
41,3785,908.0,447491
41,3790,926.0,447968
41,3795,947.0,448585
41,3800,970.0,449491
41,3805,974.0,449983
41,3810,993.0,450504
41,3815,984.0,450901
41,3820,976.0,451252
40,3825,963.0,451580
40,3830,961.0,452148
40,3835,989.0,452781
40,3840,996.0,453263
40,3845,986.0,453585
40,3850,1004.0,454062
40,3855,990.0,454562
40,3860,982.0,455259
40,3865,983.0,455918
40,3870,972.0,456130
40,3875,995.0,456805
40,3880,1012.0,457483
40,3885,1005.0,457834
40,3890,975.0,458291
40,3895,981.0,458863
39,3900,968.0,459324
39,3905,964.0,459891
39,3910,973.0,460644
39,3915,985.0,461201
39,3920,1007.0,461882
39,3925,1018.0,462424
39,3930,1027.0,463185
39,3935,1033.0,464100
39,3940,1038.0,464763
39,3945,1061.0,465758
39,3950,1082.0,466481
38,3955,1096.0,467119
38,3960,1104.0,467878
38,3965,1114.0,468667
38,3970,1131.0,469287
38,3975,1128.0,469998
38,3980,1112.0,470663
38,3985,1135.0,471401
38,3990,1166.0,472106
38,3995,1148.0,472463
38,4000,1157.0,473138
38,4005,1167.0,473807
37,4010,1178.0,474536
37,4015,1190.0,475341
37,4020,1182.0,475787
37,4025,1193.0,476436
37,4030,1201.0,477135
37,4035,1182.0,477592
37,4040,1190.0,478127
37,4045,1181.0,478757
37,4050,1181.0,479530
37,4055,1179.0,480237
37,4060,1176.0,481042
37,4065,1183.0,481732
36,4070,1195.0,482552
36,4075,1205.0,483169
36,4080,1234.0,484107
36,4085,1223.0,484858
36,4090,1211.0,485853
36,4095,1230.0,486491
36,4100,1243.0,487274
36,4105,1260.0,487997
36,4110,1246.0,488549
36,4115,1237.0,489004
35,4120,1259.0,489932
35,4125,1263.0,490537
35,4130,1272.0,491379
35,4135,1300.0,492266
35,4140,1310.0,493084
35,4145,1320.0,493706
35,4150,1317.0,494392
35,4155,1326.0,494963
35,4160,1343.0,495663
35,4165,1320.0,496094
35,4170,1292.0,496375
35,4175,1272.0,496704
35,4180,1237.0,497029
34,4185,1252.0,497925
34,4190,1269.0,498590
34,4195,1292.0,499463
34,4200,1274.0,499944
34,4205,1279.0,500475
34,4210,1276.0,501156
34,4215,1292.0,501814
34,4220,1266.0,502042
34,4225,1248.0,502516
34,4230,1243.0,503346
34,4235,1240.0,504218
34,4240,1240.0,505002
33,4245,1241.0,505568
33,4250,1237.0,506033
33,4255,1246.0,506504
33,4260,1229.0,506984
33,4265,1258.0,507673
33,4270,1293.0,508422
33,4275,1297.0,508875
33,4280,1310.0,509262
33,4285,1277.0,509517
33,4290,1284.0,510376
33,4295,1240.0,510655
33,4300,1250.0,511160
33,4305,1234.0,511605
33,4310,1245.0,512282
33,4315,1226.0,512689
32,4320,1244.0,513219
32,4325,1239.0,513409
32,4330,1215.0,513764
32,4335,1208.0,514413
32,4340,1208.0,515156
32,4345,1197.0,515781
32,4350,1213.0,516485
32,4355,1202.0,516989
32,4360,1217.0,517807
32,4365,1199.0,518345
32,4370,1206.0,519062
32,4375,1210.0,519596
32,4380,1216.0,520229
31,4385,1232.0,520577
31,4390,1233.0,521411
31,4395,1249.0,521870
31,4400,1246.0,522245
31,4405,1260.0,522936
31,4410,1248.0,523494
31,4415,1269.0,524050
31,4420,1291.0,525045
31,4425,1317.0,525631
31,4430,1359.0,526364
31,4435,1383.0,527228
31,4440,1393.0,527808
30,4445,1407.0,528454
30,4450,1403.0,529147
30,4455,1393.0,529621
30,4460,1368.0,529827
30,4465,1366.0,530111
30,4470,1357.0,530790
30,4475,1376.0,531526
30,4480,1375.0,532130
30,4485,1416.0,532993
30,4490,1402.0,533414
30,4495,1424.0,534070
30,4500,1447.0,534700
30,4505,1446.0,535148
29,4510,1471.0,536020
29,4515,1440.0,536210
29,4520,1431.0,536895
29,4525,1443.0,537529
29,4530,1446.0,538524
29,4535,1420.0,539218
29,4540,1403.0,539847
29,4545,1368.0,540059
29,4550,1360.0,540651
29,4555,1371.0,541193
29,4560,1370.0,541512
29,4565,1389.0,542078
29,4570,1357.0,542346
29,4575,1316.0,542631
29,4580,1317.0,543138
28,4585,1290.0,543680
28,4590,1278.0,544031
28,4595,1270.0,544581
28,4600,1279.0,545478
28,4605,1285.0,546038
28,4610,1280.0,546717
28,4615,1336.0,547677
28,4620,1315.0,548130
28,4625,1334.0,548995
28,4630,1314.0,549549
28,4635,1331.0,550270
28,4640,1358.0,551009
27,4645,1385.0,551460
27,4650,1373.0,551907
27,4655,1333.0,552023
27,4660,1353.0,552656
27,4665,1369.0,553298
27,4670,1386.0,553647
27,4675,1434.0,554504
27,4680,1437.0,555015
27,4685,1440.0,555492
27,4690,1474.0,556215
27,4695,1463.0,556570
27,4700,1472.0,557491
27,4705,1483.0,558178
26,4710,1501.0,559084
26,4715,1477.0,559646
26,4720,1491.0,560093
26,4725,1484.0,560896
26,4730,1462.0,561226
26,4735,1439.0,561711
26,4740,1416.0,562225
26,4745,1421.0,562946
26,4750,1452.0,563701
26,4755,1490.0,564078
26,4760,1497.0,564735
26,4765,1491.0,565506
26,4770,1500.0,565928
25,4775,1492.0,566468
25,4780,1489.0,566979
25,4785,1490.0,567483
25,4790,1501.0,568478
25,4795,1513.0,568998
25,4800,1468.0,569411
25,4805,1454.0,569939
25,4810,1435.0,570606
25,4815,1445.0,571326
25,4820,1455.0,572017
25,4825,1428.0,572418
25,4830,1473.0,573280
24,4835,1502.0,574075
24,4840,1514.0,574915
24,4845,1518.0,575570
24,4850,1506.0,576388
24,4855,1515.0,577037
24,4860,1516.0,577530
24,4865,1506.0,578088
24,4870,1534.0,578976
24,4875,1543.0,579661
24,4880,1580.0,580484
24,4885,1582.0,580982
24,4890,1576.0,581624
23,4895,1576.0,582120
23,4900,1608.0,582770
23,4905,1616.0,583481
23,4910,1616.0,584291
23,4915,1613.0,585105
23,4920,1619.0,585674
23,4925,1633.0,586239
23,4930,1633.0,586943
23,4935,1599.0,587447
23,4940,1602.0,588204
23,4945,1600.0,588879
22,4950,1607.0,589626
22,4955,1595.0,589971
22,4960,1577.0,590314
22,4965,1568.0,590819
22,4970,1572.0,591656
22,4975,1566.0,592474
22,4980,1552.0,593150
22,4985,1578.0,593853
22,4990,1556.0,594481
22,4995,1574.0,595168
22,5000,1573.0,595800
22,5005,1578.0,596505
21,5010,1592.0,597142
21,5015,1589.0,597799
21,5020,1587.0,598326
21,5025,1586.0,598821
21,5030,1567.0,599446
21,5035,1603.0,600316
21,5040,1603.0,600984
21,5045,1625.0,601673
21,5050,1625.0,602283
21,5055,1617.0,602600
21,5060,1654.0,603518
21,5065,1681.0,604057
20,5070,1666.0,604623
20,5075,1677.0,605345
20,5080,1687.0,606276
20,5085,1685.0,607140
20,5090,1684.0,607535
20,5095,1666.0,608162
20,5100,1670.0,608857
20,5105,1650.0,609332
20,5110,1611.0,609814
20,5115,1603.0,610326
20,5120,1612.0,611085
20,5125,1620.0,611899
19,5130,1629.0,612726
19,5135,1606.0,613342
19,5140,1603.0,614154
19,5145,1595.0,614868
19,5150,1572.0,615351
19,5155,1595.0,615877
19,5160,1578.0,616594
19,5165,1564.0,617363
19,5170,1570.0,618217
19,5175,1575.0,619066
19,5180,1551.0,619721
18,5185,1543.0,620351
18,5190,1563.0,621317
18,5195,1558.0,621778
18,5200,1536.0,622270
18,5205,1546.0,622820
18,5210,1578.0,623503
18,5215,1585.0,624049
18,5220,1584.0,624773
18,5225,1588.0,625546
18,5230,1560.0,625882
18,5235,1573.0,626559
18,5240,1586.0,627169
17,5245,1585.0,627850
17,5250,1623.0,628774
17,5255,1637.0,629225
17,5260,1635.0,629733
17,5265,1650.0,630573
17,5270,1652.0,631130
17,5275,1654.0,632125
17,5280,1669.0,632802
17,5285,1672.0,633454
17,5290,1668.0,634032
17,5295,1689.0,634839
16,5300,1717.0,635677
16,5305,1735.0,636513
16,5310,1751.0,637338
16,5315,1767.0,638145
16,5320,1759.0,638874
16,5325,1770.0,639834
16,5330,1806.0,640498
16,5335,1809.0,641314
16,5340,1794.0,641918
16,5345,1791.0,642462
15,5350,1788.0,643298
15,5355,1786.0,643962
15,5360,1812.0,644588
15,5365,1817.0,645411
15,5370,1796.0,645881
15,5375,1778.0,646473
15,5380,1762.0,646955
15,5385,1769.0,647793
15,5390,1782.0,648629
15,5395,1790.0,649465
15,5400,1794.0,650087
14,5405,1801.0,650992
14,5410,1809.0,651902
14,5415,1793.0,652331
14,5420,1802.0,653008
14,5425,1799.0,653611
14,5430,1798.0,654390
14,5435,1821.0,655385
14,5440,1852.0,656304
14,5445,1851.0,656840
14,5450,1854.0,657676
13,5455,1848.0,658180
13,5460,1829.0,658808
13,5465,1834.0,659599
13,5470,1868.0,660489
13,5475,1887.0,661329
13,5480,1912.0,662168
13,5485,1919.0,662943
13,5490,1918.0,663785
13,5495,1913.0,664363
13,5500,1920.0,665118
12,5505,1918.0,665938
12,5510,1930.0,666786
12,5515,1946.0,667398
12,5520,1949.0,667960
12,5525,1958.0,668794
12,5530,1975.0,669607
12,5535,1978.0,670408
12,5540,1937.0,670805
12,5545,1961.0,671472
12,5550,1975.0,672467
12,5555,1992.0,673303
11,5560,2002.0,674113
11,5565,2000.0,674826
11,5570,2001.0,675648
11,5575,2001.0,676465
11,5580,2012.0,677121
11,5585,2007.0,677882
11,5590,1990.0,678519
11,5595,2001.0,679231
11,5600,1981.0,679831
11,5605,1980.0,680419
11,5610,1942.0,680838
10,5615,1952.0,681623
10,5620,1941.0,682100
10,5625,1935.0,682757
10,5630,1903.0,683245
10,5635,1864.0,683709
10,5640,1912.0,684403
10,5645,1901.0,684967
10,5650,1890.0,685692
10,5655,1867.0,686156
10,5660,1858.0,686711
10,5665,1853.0,687533
10,5670,1858.0,688223
9,5675,1859.0,688998
9,5680,1859.0,689747
9,5685,1863.0,690460
9,5690,1852.0,690797
9,5695,1858.0,691792
9,5700,1877.0,692392
9,5705,1858.0,692946
9,5710,1879.0,693743
9,5715,1865.0,694430
9,5720,1874.0,695078
9,5725,1868.0,695745
9,5730,1889.0,696419
8,5735,1916.0,696993
8,5740,1895.0,697693
8,5745,1881.0,698064
8,5750,1892.0,699059
8,5755,1913.0,699868
8,5760,1940.0,700597
8,5765,1941.0,701342
8,5770,1910.0,701820
8,5775,1920.0,702575
8,5780,1922.0,703304
8,5785,1932.0,704070
7,5790,1989.0,705065
7,5795,1966.0,705581
7,5800,1957.0,706189
7,5805,1976.0,706777
7,5810,1950.0,707259
7,5815,1969.0,708095
7,5820,1992.0,709090
7,5825,1998.0,709791
7,5830,2006.0,710601
7,5835,1961.0,710884
7,5840,1930.0,711344
6,5845,1970.0,712339
6,5850,1944.0,712980
6,5855,1922.0,713442
6,5860,1874.0,713894
6,5865,1849.0,714374
6,5870,1855.0,714999
6,5875,1851.0,715821
6,5880,1852.0,716661
6,5885,1836.0,717483
6,5890,1798.0,718120
6,5895,1781.0,718429
6,5900,1787.0,719239
5,5905,1804.0,720234
5,5910,1830.0,721044
5,5915,1828.0,721870
5,5920,1811.0,722692
5,5925,1827.0,723687
5,5930,1835.0,724682
5,5935,1897.0,725677
5,5940,1909.0,726302
4,5945,1891.0,727124
4,5950,1919.0,728119
4,5955,1939.0,728937
4,5960,1970.0,729747
4,5965,1991.0,730617
4,5970,2012.0,731612
4,5975,2007.0,732607
4,5980,2004.0,733602
4,5985,1991.0,734412
3,5990,2000.0,735407
3,5995,2021.0,736402
3,6000,2008.0,737397
3,6005,1982.0,738392
3,6010,1969.0,739387
3,6015,1949.0,740382
3,6020,1927.0,741192
3,6025,1905.0,742187
2,6030,1872.0,742997
2,6035,1854.0,743992
2,6040,1864.0,744987
2,6045,1857.0,745982
2,6050,1846.0,746977
2,6055,1840.0,747972
2,6060,1839.0,748967
2,6065,1822.0,749807
2,6070,1801.0,750802
2,6075,1787.0,751797
2,6080,1783.0,752792
2,6085,1789.0,753664
2,6090,1794.0,754659
2,6095,1810.0,755654
2,6100,1825.0,756649
2,6105,1840.0,757644
2,6110,1848.0,758482
2,6115,1863.0,759477
2,6120,1881.0,760472
2,6125,1887.0,761467
2,6130,1913.0,762261
2,6135,1921.0,762953
2,6140,1942.0,763621
2,6145,1957.0,764468
2,6150,1959.0,765337
2,6155,1966.0,766332
2,6160,1980.0,767312
2,6165,2009.0,767930
2,6170,2024.0,768513
2,6175,2039.0,769508
2,6180,2048.0,770503
2,6185,2064.0,771365
2,6190,2068.0,772166
2,6195,2067.0,773161
2,6200,2069.0,774156
2,6205,2073.0,775090
2,6210,2080.0,776048
2,6215,2086.0,777006
2,6220,2098.0,777855
2,6225,2106.0,778632
2,6230,2111.0,779616
2,6235,2112.0,780380
2,6240,2112.0,781203
2,6245,2114.0,782089
2,6250,2121.0,783084
2,6255,2136.0,784079
2,6260,2142.0,785074
2,6265,2141.0,786069
2,6270,2146.0,786762
2,6275,2157.0,787489
2,6280,2158.0,788484
2,6285,2157.0,789233
2,6290,2167.0,790228
2,6295,2178.0,791223
2,6300,2173.0,792049
2,6305,2174.0,792874
2,6310,2169.0,793214
2,6315,2161.0,793895
2,6320,2167.0,794759
2,6325,2163.0,795456
2,6330,2173.0,796318
2,6335,2182.0,797180
2,6340,2187.0,797907
2,6345,2180.0,798624
2,6350,2183.0,799286
2,6355,2175.0,799977
2,6360,2170.0,800414
2,6365,2168.0,801109
2,6370,2165.0,801645
2,6375,2169.0,802564
2,6380,2155.0,803096
2,6385,2183.0,804091
2,6390,2181.0,804917
2,6395,2188.0,805912
2,6400,2210.0,806907
2,6405,2169.0,807234
2,6410,2199.0,808120
2,6415,2222.0,808956
2,6420,2208.0,809792
2,6425,2234.0,810787
2,6430,2230.0,811625
2,6435,2233.0,812620
2,6440,2233.0,813615
2,6445,2244.0,814610
2,6450,2232.0,815448
2,6455,2228.0,816117
2,6460,2233.0,817112
2,6465,2227.0,817948
2,6470,2218.0,818617
2,6475,2192.0,819443
2,6480,2191.0,820269
2,6485,2151.0,821264
2,6490,2133.0,822100
2,6495,2107.0,823095
2,6500,2066.0,823921
2,6505,2108.0,824865
2,6510,2107.0,825860
2,6515,2083.0,826513
2,6520,2097.0,827351
2,6525,2083.0,828346
2,6530,2076.0,829341
2,6535,2069.0,830336
2,6540,2068.0,831331
2,6545,2062.0,832326
2,6550,2062.0,833017
2,6555,2061.0,833843
2,6560,2057.0,834838
2,6565,2059.0,835664
2,6570,2068.0,836437
2,6575,2092.0,837432
2,6580,2111.0,838427
2,6585,2111.0,839422
2,6590,2112.0,840079
2,6595,2129.0,840905
2,6600,2165.0,841753
2,6605,2171.0,842748
2,6610,2165.0,843743
2,6615,2171.0,844569
2,6620,2161.0,845395
2,6625,2164.0,846283
2,6630,2173.0,847278
2,6635,2180.0,848273
2,6640,2189.0,849255
2,6645,2174.0,850081
2,6650,2165.0,850582
2,6655,2189.0,851577
2,6660,2174.0,852246
2,6665,2176.0,853056
2,6670,2177.0,853642
2,6675,2167.0,854468
2,6680,2165.0,855294
2,6685,2185.0,856120
2,6690,2194.0,856824
2,6695,2202.0,857734
2,6700,2207.0,858620
2,6705,2205.0,859446
2,6710,2194.0,860272
2,6715,2216.0,861134
2,6720,2221.0,861960
2,6725,2229.0,862955
2,6730,2231.0,863950
2,6735,2218.0,864619
2,6740,2209.0,865445
2,6745,2227.0,866271
2,6750,2258.0,867266
2,6755,2233.0,867923
2,6760,2252.0,868749
2,6765,2269.0,869587
2,6770,2294.0,870582
2,6775,2304.0,871577
2,6780,2310.0,872572
2,6785,2316.0,873408
2,6790,2324.0,874234
2,6795,2330.0,875229
2,6800,2327.0,876224
2,6805,2327.0,877064
2,6810,2305.0,877721
2,6815,2308.0,878716
2,6820,2319.0,879542
2,6825,2328.0,880537
2,6830,2346.0,881532
2,6835,2378.0,882527
2,6840,2400.0,883522
2,6845,2425.0,884517
2,6850,2439.0,885512
2,6855,2464.0,886338
2,6860,2479.0,887333
2,6865,2500.0,888328
2,6870,2514.0,889323
2,6875,2533.0,890318
2,6880,2552.0,891313
2,6885,2571.0,892308
2,6890,2597.0,893303
2,6895,2608.0,894298
2,6900,2626.0,895293
2,6905,2649.0,896288
2,6910,2661.0,896941
2,6915,2641.0,897751
2,6920,2637.0,898573
2,6925,2608.0,899399
2,6930,2609.0,900394
2,6935,2606.0,901389
2,6940,2596.0,902227
2,6945,2600.0,903222
2,6950,2603.0,904217
2,6955,2603.0,905027
2,6960,2593.0,905837
2,6965,2584.0,906681
2,6970,2561.0,907491
2,6975,2555.0,908329
2,6980,2556.0,909324
2,6985,2542.0,910150
2,6990,2540.0,911145
2,6995,2542.0,912140
2,7000,2531.0,912978
2,7005,2524.0,913973
2,7010,2545.0,914968
2,7015,2550.0,915778
2,7020,2531.0,916423
2,7025,2561.0,917418
2,7030,2540.0,918228
2,7035,2523.0,919038
2,7040,2540.0,920033
2,7045,2540.0,921028
2,7050,2512.0,921854
2,7055,2518.0,922692
2,7060,2523.0,923686
2,7065,2516.0,924681
2,7070,2542.0,925676
2,7075,2552.0,926671
2,7080,2556.0,927666
2,7085,2562.0,928504
2,7090,2533.0,929157
2,7095,2518.0,929995
2,7100,2532.0,930990
2,7105,2539.0,931985
2,7110,2526.0,932980
2,7115,2525.0,933790
2,7120,2525.0,934600
2,7125,2484.0,935235
2,7130,2495.0,936073
2,7135,2479.0,936895
2,7140,2468.0,937733
2,7145,2455.0,938571
2,7150,2473.0,939409
2,7155,2446.0,939909
2,7160,2451.0,940904
2,7165,2469.0,941899
2,7170,2416.0,942383
2,7175,2392.0,943193
2,7180,2390.0,944188
2,7185,2363.0,944839
2,7190,2373.0,945649
2,7195,2380.0,946487
2,7200,2370.0,947325
2,7205,2357.0,948147
2,7210,2392.0,949142
2,7215,2402.0,949968
2,7220,2429.0,950963
2,7225,2440.0,951616
2,7230,2431.0,952426
2,7235,2468.0,953421
2,7240,2467.0,954259
2,7245,2436.0,954759
2,7250,2420.0,955599
2,7255,2460.0,956594
2,7260,2471.0,957589
2,7265,2451.0,958401
2,7270,2499.0,959396
2,7275,2506.0,960216
2,7280,2461.0,960841
2,7285,2502.0,961836
2,7290,2510.0,962674
2,7295,2522.0,963620
2,7300,2516.0,964458
2,7305,2523.0,965295
2,7310,2501.0,966115
2,7315,2509.0,966955
2,7320,2506.0,967767
2,7325,2532.0,968605
2,7330,2542.0,969443
2,7335,2535.0,970281
2,7340,2550.0,971276
2,7345,2599.0,972271
2,7350,2628.0,973266
2,7355,2633.0,974261
2,7360,2608.0,974930
2,7365,2605.0,975925
2,7370,2610.0,976920
2,7375,2621.0,977758
2,7380,2644.0,978439
2,7385,2627.0,979434
2,7390,2641.0,980429
2,7395,2638.0,981424
2,7400,2631.0,982105
2,7405,2631.0,982943
2,7410,2654.0,983938
2,7415,2659.0,984933
2,7420,2653.0,985616
2,7425,2653.0,986454
2,7430,2668.0,987449
2,7435,2679.0,988444
2,7440,2635.0,989087
2,7445,2609.0,989768
2,7450,2589.0,990594
2,7455,2532.0,991066
2,7460,2538.0,991892
2,7465,2552.0,992730
2,7470,2537.0,993556
2,7475,2547.0,994551
2,7480,2550.0,995232
2,7485,2553.0,996070
2,7490,2554.0,997065
2,7495,2555.0,998060
2,7500,2582.0,999055
2,7505,2598.0,1000050
2,7510,2600.0,1001045
2,7515,2570.0,1001702
2,7520,2597.0,1002697
2,7525,2606.0,1003692
2,7530,2592.0,1004530
2,7535,2591.0,1005525
2,7540,2611.0,1006208
2,7545,2623.0,1007203
2,7550,2628.0,1008041
2,7555,2666.0,1008867
2,7560,2680.0,1009705
2,7565,2657.0,1010362
2,7570,2643.0,1011031
2,7575,2627.0,1011857
2,7580,2620.0,1012526
2,7585,2612.0,1013207
2,7590,2580.0,1014033
2,7595,2566.0,1014859
2,7600,2537.0,1015636
2,7605,2500.0,1016293
2,7610,2498.0,1017288
2,7615,2500.0,1017945
2,7620,2469.0,1018771
2,7625,2429.0,1019283
2,7630,2425.0,1020107
2,7635,2414.0,1020945
2,7640,2422.0,1021940
2,7645,2432.0,1022935
2,7650,2446.0,1023930
2,7655,2445.0,1024629
2,7660,2421.0,1025286
2,7665,2423.0,1025943
2,7670,2443.0,1026829
2,7675,2420.0,1027655
2,7680,2425.0,1028336
2,7685,2432.0,1029162
2,7690,2449.0,1029988
2,7695,2442.0,1030669
2,7700,2437.0,1031326
2,7705,2455.0,1032152
2,7710,2439.0,1032978
2,7715,2470.0,1033973
2,7720,2466.0,1034799
2,7725,2507.0,1035794
2,7730,2505.0,1036620
2,7735,2519.0,1037615
2,7740,2519.0,1038610
2,7745,2520.0,1039605
2,7750,2503.0,1040431
2,7755,2478.0,1041088
2,7760,2502.0,1042083
2,7765,2528.0,1043078
2,7770,2540.0,1044073
2,7775,2566.0,1044913
2,7780,2589.0,1045908
2,7785,2604.0,1046903
2,7790,2620.0,1047898
2,7795,2624.0,1048724
2,7800,2629.0,1049393
2,7805,2621.0,1050203
2,7810,2633.0,1051198
2,7815,2636.0,1052193
2,7820,2672.0,1053188
2,7825,2657.0,1054014
2,7830,2673.0,1055009
2,7835,2672.0,1056004
2,7840,2687.0,1056999
2,7845,2666.0,1057825
2,7850,2682.0,1058820
2,7855,2728.0,1059815
2,7860,2732.0,1060810
2,7865,2737.0,1061805
2,7870,2736.0,1062800
2,7875,2748.0,1063795
2,7880,2747.0,1064790
2,7885,2748.0,1065785
2,7890,2737.0,1066623
2,7895,2757.0,1067618
2,7900,2786.0,1068613
2,7905,2808.0,1069608
2,7910,2809.0,1070603
2,7915,2803.0,1071598
2,7920,2736.0,1072225
2,7925,2753.0,1073220
2,7930,2755.0,1074215
2,7935,2739.0,1075041
2,7940,2739.0,1076036
2,7945,2761.0,1077031
2,7950,2760.0,1078026
2,7955,2759.0,1079021
2,7960,2755.0,1079859
2,7965,2759.0,1080854
2,7970,2761.0,1081849
2,7975,2764.0,1082844
2,7980,2767.0,1083839
2,7985,2767.0,1084834
2,7990,2770.0,1085678
2,7995,2769.0,1086673
2,8000,2771.0,1087668
2,8005,2739.0,1088506
2,8010,2742.0,1089501
2,8015,2749.0,1090496
2,8020,2811.0,1091491
2,8025,2805.0,1092486
2,8030,2807.0,1093481
2,8035,2804.0,1094303
2,8040,2780.0,1095113
2,8045,2782.0,1096108
2,8050,2780.0,1097103
2,8055,2784.0,1098098
2,8060,2782.0,1099093
2,8065,2783.0,1100088
2,8070,2768.0,1101083
2,8075,2772.0,1102078
2,8080,2742.0,1102904
2,8085,2740.0,1103899
2,8090,2753.0,1104894
2,8095,2758.0,1105889
2,8100,2759.0,1106884
2,8105,2796.0,1107879
2,8110,2781.0,1108676
2,8115,2757.0,1109502
2,8120,2760.0,1110497
2,8125,2770.0,1111492
2,8130,2774.0,1112487
2,8135,2800.0,1113482
2,8140,2830.0,1114477
2,8145,2835.0,1115472
2,8150,2819.0,1116294
2,8155,2820.0,1117289
2,8160,2834.0,1118284
2,8165,2837.0,1119279
2,8170,2857.0,1120274
2,8175,2855.0,1121269
2,8180,2839.0,1121896
2,8185,2845.0,1122891
2,8190,2847.0,1123886
2,8195,2846.0,1124881
2,8200,2848.0,1125876
2,8205,2848.0,1126871
2,8210,2847.0,1127866
2,8215,2875.0,1128861
2,8220,2863.0,1129856
2,8225,2859.0,1130851
2,8230,2858.0,1131846
2,8235,2858.0,1132841
2,8240,2813.0,1133480
2,8245,2806.0,1134475
2,8250,2831.0,1135470
2,8255,2830.0,1136465
2,8260,2812.0,1137277
2,8265,2811.0,1138272
2,8270,2798.0,1139112
2,8275,2800.0,1140107
2,8280,2844.0,1141102
2,8285,2837.0,1142097
2,8290,2836.0,1143092
2,8295,2787.0,1143733
2,8300,2764.0,1144490
2,8305,2748.0,1145485
2,8310,2765.0,1146480
2,8315,2745.0,1147302
2,8320,2764.0,1148297
2,8325,2764.0,1149292
2,8330,2763.0,1150287
2,8335,2702.0,1150817
2,8340,2721.0,1151510
2,8345,2724.0,1152505
2,8350,2722.0,1153500
2,8355,2672.0,1154125
2,8360,2690.0,1155120
2,8365,2665.0,1155932
2,8370,2653.0,1156742
2,8375,2636.0,1157737
2,8380,2639.0,1158732
2,8385,2645.0,1159727
2,8390,2645.0,1160722
2,8395,2695.0,1161717
2,8400,2691.0,1162527
2,8405,2707.0,1163522
2,8410,2709.0,1164517
2,8415,2729.0,1165512
2,8420,2728.0,1166507
2,8425,2731.0,1167463
2,8430,2724.0,1168311
2,8435,2782.0,1169306
2,8440,2809.0,1170301
2,8445,2783.0,1171113
2,8450,2760.0,1171935
2,8455,2787.0,1172745
2,8460,2791.0,1173740
2,8465,2814.0,1174735
2,8470,2800.0,1175392
2,8475,2776.0,1176035
2,8480,2742.0,1176692
2,8485,2732.0,1177687
2,8490,2733.0,1178682
2,8495,2733.0,1179677
2,8500,2759.0,1180672
2,8505,2706.0,1181160
2,8510,2707.0,1182155
2,8515,2688.0,1182977
2,8520,2671.0,1183803
2,8525,2673.0,1184798
2,8530,2682.0,1185793
2,8535,2667.0,1186619
2,8540,2630.0,1187276
2,8545,2659.0,1188271
2,8550,2686.0,1189266
2,8555,2709.0,1190261
2,8560,2695.0,1191256
2,8565,2655.0,1191911
2,8570,2679.0,1192741
2,8575,2722.0,1193736
2,8580,2742.0,1194558
2,8585,2738.0,1195380
2,8590,2717.0,1196202
2,8595,2700.0,1197028
2,8600,2704.0,1198023
2,8605,2734.0,1198833
2,8610,2738.0,1199828
2,8615,2743.0,1200652
2,8620,2765.0,1201647
2,8625,2767.0,1202642
2,8630,2771.0,1203637
2,8635,2793.0,1204549
2,8640,2818.0,1205385
2,8645,2823.0,1206371
2,8650,2826.0,1207366
2,8655,2810.0,1208192
2,8660,2827.0,1209187
2,8665,2873.0,1210093
2,8670,2887.0,1210990
2,8675,2889.0,1211948
2,8680,2911.0,1212943
2,8685,2914.0,1213769
2,8690,2910.0,1214546
2,8695,2931.0,1215469
2,8700,2903.0,1216234
2,8705,2931.0,1217229
2,8710,2933.0,1218163
2,8715,2951.0,1219077
2,8720,2952.0,1220035
2,8725,2929.0,1220863
2,8730,2913.0,1221678
2,8735,2913.0,1222551
2,8740,2911.0,1223546
2,8745,2888.0,1224363
2,8750,2868.0,1225176
2,8755,2870.0,1225998
2,8760,2853.0,1226820
2,8765,2855.0,1227815
2,8770,2855.0,1228810
2,8775,2834.0,1229636
2,8780,2834.0,1230631
2,8785,2851.0,1231626
2,8790,2881.0,1232621
2,8795,2862.0,1233447
2,8800,2891.0,1234401
2,8805,2889.0,1235385
2,8810,2888.0,1236380
2,8815,2871.0,1237206
2,8820,2870.0,1238201
2,8825,2868.0,1239019
2,8830,2885.0,1240014
2,8835,2880.0,1241009
2,8840,2876.0,1242004
2,8845,2900.0,1242999
2,8850,2921.0,1243994
2,8855,2934.0,1244989
2,8860,2956.0,1245984
2,8865,2940.0,1246979
2,8870,2945.0,1247974
2,8875,2967.0,1248969
2,8880,2960.0,1249899
2,8885,2959.0,1250894
2,8890,2957.0,1251889
2,8895,2957.0,1252715
2,8900,2936.0,1253710
2,8905,2913.0,1254520
2,8910,2911.0,1255515
2,8915,2865.0,1255997
2,8920,2845.0,1256823
2,8925,2872.0,1257818
2,8930,2873.0,1258813
2,8935,2851.0,1259623
2,8940,2872.0,1260618
2,8945,2852.0,1261383
2,8950,2833.0,1262209
2,8955,2838.0,1263204
2,8960,2789.0,1263845
2,8965,2803.0,1264823
2,8970,2744.0,1265311
2,8975,2706.0,1265968
2,8980,2694.0,1266794
2,8985,2684.0,1267789
2,8990,2666.0,1268615
2,8995,2687.0,1269610
2,9000,2708.0,1270605
2,9005,2714.0,1271431
2,9010,2679.0,1272088
2,9015,2742.0,1273083
2,9020,2765.0,1274078
2,9025,2747.0,1274904
2,9030,2726.0,1275730
2,9035,2751.0,1276725
2,9040,2751.0,1277720
2,9045,2749.0,1278548
2,9050,2760.0,1279543
2,9055,2763.0,1280538
2,9060,2811.0,1281533
2,9065,2813.0,1282528
2,9070,2850.0,1283341
2,9075,2869.0,1284167
2,9080,2884.0,1285162
2,9085,2879.0,1285988
2,9090,2877.0,1286814
2,9095,2859.0,1287809
2,9100,2835.0,1288635
2,9105,2856.0,1289630
2,9110,2895.0,1290625
2,9115,2877.0,1291451
2,9120,2873.0,1292446
2,9125,2871.0,1293272
2,9130,2887.0,1294267
2,9135,2883.0,1295221
2,9140,2881.0,1296216
2,9145,2900.0,1297211
2,9150,2907.0,1298206
2,9155,2886.0,1299032
2,9160,2882.0,1300027
2,9165,2880.0,1300997
2,9170,2900.0,1301992
2,9175,2918.0,1302987
2,9180,2922.0,1303982
2,9185,2929.0,1304977
2,9190,2920.0,1305787
2,9195,2915.0,1306613
2,9200,2937.0,1307608
2,9205,2877.0,1308267
2,9210,2854.0,1309093
2,9215,2831.0,1309750
2,9220,2787.0,1310403
2,9225,2807.0,1311398
2,9230,2810.0,1312393
2,9235,2790.0,1313388
2,9240,2791.0,1314383
2,9245,2794.0,1315378
2,9250,2794.0,1316373
2,9255,2814.0,1317368
2,9260,2793.0,1318186
2,9265,2774.0,1319012
2,9270,2776.0,1320007
2,9275,2774.0,1321002
2,9280,2773.0,1321997
2,9285,2772.0,1322992
2,9290,2796.0,1323987
2,9295,2799.0,1324982
2,9300,2799.0,1325977
2,9305,2856.0,1326972
2,9310,2875.0,1327967
2,9315,2918.0,1328962
2,9320,2963.0,1329957
2,9325,2965.0,1330952
2,9330,2961.0,1331922
2,9335,2987.0,1332917
2,9340,2987.0,1333912
2,9345,2968.0,1334738
2,9350,2969.0,1335700
2,9355,2961.0,1336695
2,9360,2986.0,1337690
2,9365,3008.0,1338685
2,9370,2997.0,1339680
2,9375,2977.0,1340506
2,9380,2969.0,1341501
2,9385,2987.0,1342496
2,9390,2994.0,1343491
2,9395,3009.0,1344471
2,9400,3001.0,1345466
2,9405,3002.0,1346461
2,9410,3013.0,1347456
2,9415,3021.0,1348451
2,9420,3027.0,1349446
2,9425,3018.0,1350284
2,9430,3018.0,1351122
2,9435,3000.0,1351932
2,9440,3010.0,1352927
2,9445,3033.0,1353922
2,9450,3041.0,1354917
2,9455,3023.0,1355801
2,9460,3028.0,1356796
2,9465,3014.0,1357622
2,9470,3031.0,1358617
2,9475,3063.0,1359612
2,9480,3062.0,1360440
2,9485,3063.0,1361435
2,9490,3047.0,1362255
2,9495,3013.0,1362896
2,9500,3034.0,1363891
2,9505,3024.0,1364717
2,9510,3022.0,1365712
2,9515,3024.0,1366707
2,9520,3025.0,1367702
2,9525,3009.0,1368512
2,9530,2993.0,1369255
2,9535,3018.0,1370250
2,9540,2997.0,1371076
2,9545,2998.0,1372071
2,9550,2994.0,1373057
2,9555,3027.0,1374052
2,9560,3009.0,1374878
2,9565,2998.0,1375688
2,9570,2995.0,1376683
2,9575,2971.0,1377497
2,9580,2986.0,1378492
2,9585,2974.0,1379487
2,9590,2980.0,1380482
2,9595,2990.0,1381149
2,9600,2984.0,1382144
2,9605,3004.0,1383024
2,9610,3003.0,1384019
2,9615,3002.0,1385014
2,9620,2981.0,1385840
2,9625,3011.0,1386835
2,9630,3036.0,1387830
2,9635,3032.0,1388825
2,9640,3055.0,1389820
2,9645,3058.0,1390815
2,9650,3061.0,1391810
2,9655,3033.0,1392620
2,9660,3006.0,1393590
2,9665,3017.0,1394416
2,9670,3020.0,1395411
2,9675,3043.0,1396406
2,9680,3044.0,1397401
2,9685,3055.0,1398396
2,9690,3044.0,1399206
2,9695,3072.0,1400201
2,9700,3076.0,1401196
2,9705,3058.0,1402191
2,9710,3036.0,1403013
2,9715,3036.0,1404008
2,9720,3058.0,1405003
2,9725,3037.0,1405998
2,9730,3038.0,1406993
2,9735,3045.0,1407988
2,9740,3023.0,1408814
2,9745,3013.0,1409809
2,9750,3016.0,1410804
2,9755,3025.0,1411519
2,9760,3068.0,1412346
2,9765,3069.0,1413172
2,9770,3061.0,1414011
2,9775,3060.0,1414909
2,9780,3062.0,1415904
2,9785,3057.0,1416899
2,9790,3082.0,1417811
2,9795,3082.0,1418775
2,9800,3054.0,1419601
2,9805,3064.0,1420579
2,9810,3012.0,1421035
2,9815,3008.0,1421961
2,9820,2998.0,1422841
2,9825,3015.0,1423835
2,9830,3012.0,1424830
2,9835,3003.0,1425824
2,9840,2994.0,1426652
2,9845,2999.0,1427647
2,9850,2985.0,1428642
2,9855,2975.0,1429452
2,9860,2975.0,1430447
2,9865,2988.0,1431347
2,9870,2982.0,1432227
2,9875,2981.0,1433197
2,9880,2939.0,1433856
2,9885,2903.0,1434513
2,9890,2901.0,1435508
2,9895,2902.0,1436482
2,9900,2927.0,1437477
2,9905,2876.0,1438102
2,9910,2951.0,1439097
2,9915,2945.0,1440079
2,9920,2953.0,1441074
2,9925,2957.0,1442069
2,9930,2966.0,1443064
2,9935,2970.0,1444059
2,9940,2979.0,1444887
2,9945,2982.0,1445767
2,9950,2993.0,1446762
2,9955,2998.0,1447574
2,9960,2935.0,1448046
2,9965,2915.0,1448856
2,9970,2889.0,1449666
2,9975,2893.0,1450661
2,9980,2937.0,1451656
2,9985,2979.0,1452651
2,9990,2957.0,1453463
2,9995,2966.0,1454458
2,10000,2922.0,1455101
2,10005,2980.0,1456096
2,10010,2933.0,1456745
2,10015,2940.0,1457740
2,10020,2931.0,1458735
2,10025,2934.0,1459730
2,10030,2911.0,1460616
2,10035,2916.0,1461611
2,10040,2937.0,1462606
2,10045,2911.0,1463601
2,10050,2908.0,1464596
2,10055,2929.0,1465591
2,10060,2987.0,1466586
2,10065,2970.0,1467243
2,10070,2994.0,1468069
2,10075,2987.0,1469064
2,10080,2980.0,1470059
2,10085,2981.0,1471054
2,10090,2985.0,1471880
2,10095,2983.0,1472875
2,10100,3001.0,1473687
2,10105,2999.0,1474682
2,10110,3049.0,1475677
2,10115,3048.0,1476672
2,10120,3055.0,1477667
2,10125,3056.0,1478662
2,10130,3077.0,1479657
2,10135,3078.0,1480652
2,10140,3074.0,1481647
2,10145,3098.0,1482642
2,10150,3094.0,1483637
2,10155,3101.0,1484533
2,10160,3096.0,1485371
2,10165,3089.0,1486024
2,10170,3088.0,1486850
2,10175,3067.0,1487678
2,10180,3051.0,1488504
2,10185,3016.0,1489314
2,10190,3038.0,1490309
2,10195,3036.0,1491304
2,10200,3064.0,1492299
2,10205,3049.0,1493153
2,10210,3023.0,1493979
2,10215,3004.0,1494873
2,10220,3008.0,1495712
2,10225,3000.0,1496707
2,10230,3001.0,1497702
2,10235,2983.0,1498540
2,10240,2958.0,1499241
