% time spent exploring,episodes,mean 100 episode reward,steps
99,5,300.0,720
99,10,377.8,1459
99,15,392.9,2122
99,20,510.5,2894
99,25,475.0,3601
99,30,469.0,4206
99,35,517.6,5017
99,40,497.4,5518
99,45,529.5,6353
99,50,530.6,7177
98,55,525.9,8079
98,60,535.6,8911
98,65,540.6,9751
98,70,536.2,10364
98,75,555.4,11150
98,80,554.4,12058
98,85,547.6,12759
98,90,546.1,13451
98,95,541.5,14151
98,100,531.3,15019
97,105,544.0,15702
97,110,553.0,16446
97,115,552.0,17298
97,120,537.0,18109
97,125,546.0,18555
97,130,555.0,19211
97,135,544.0,19967
97,140,571.0,20828
97,145,548.0,21533
97,150,556.0,22377
96,155,571.0,23235
96,160,582.0,24067
96,165,581.0,24847
96,170,585.0,25374
96,175,576.0,25847
96,180,582.0,26810
96,185,594.0,27541
96,190,590.0,27891
96,195,589.0,28418
96,200,600.0,29060
96,205,598.0,29733
96,210,605.0,30332
95,215,610.0,30916
95,220,616.0,31710
95,225,616.0,32506
95,230,614.0,33208
95,235,632.0,34059
95,240,601.0,34466
95,245,610.0,35203
95,250,620.0,35970
95,255,619.0,36678
95,260,602.0,37292
95,265,605.0,38168
94,270,615.0,38832
94,275,612.0,39455
94,280,611.0,40035
94,285,619.0,40886
94,290,626.0,41514
94,295,635.0,42404
94,300,630.0,42848
94,305,626.0,43431
94,310,607.0,43844
94,315,610.0,44522
94,320,613.0,45258
94,325,609.0,45876
93,330,606.0,46349
93,335,599.0,47098
93,340,624.0,47959
93,345,639.0,48544
93,350,620.0,49090
93,355,616.0,49767
93,360,616.0,50527
93,365,623.0,51353
93,370,609.0,51793
93,375,597.0,52325
93,380,604.0,53083
92,385,607.0,53670
92,390,612.0,54439
92,395,612.0,54905
92,400,630.0,55818
92,405,647.0,56527
92,410,671.0,57138
92,415,677.0,57909
92,420,664.0,58350
92,425,702.0,59154
92,430,715.0,59872
92,435,705.0,60300
92,440,702.0,61023
91,445,695.0,61733
91,450,689.0,62125
91,455,675.0,62559
91,460,684.0,63180
91,465,669.0,63568
91,470,657.0,63874
91,475,663.0,64431
91,480,644.0,64939
91,485,641.0,65720
91,490,642.0,66448
91,495,651.0,67168
91,500,650.0,67971
91,505,651.0,68692
90,510,652.0,69376
90,515,647.0,69773
90,520,638.0,70125
90,525,608.0,70562
90,530,609.0,71289
90,535,607.0,71766
90,540,607.0,72561
90,545,601.0,73016
90,550,611.0,73599
90,555,645.0,74430
90,560,634.0,75051
90,565,646.0,75595
90,570,685.0,76296
89,575,700.0,76905
89,580,704.0,77255
89,585,683.0,77732
89,590,691.0,78562
89,595,685.0,79072
89,600,674.0,79559
89,605,671.0,80190
89,610,661.0,80709
89,615,678.0,81472
89,620,688.0,81790
89,625,696.0,82355
89,630,692.0,83059
89,635,692.0,83590
89,640,689.0,84079
88,645,701.0,84753
88,650,697.0,85023
88,655,693.0,85682
88,660,706.0,86319
88,665,700.0,86783
88,670,682.0,87405
88,675,677.0,87955
88,680,687.0,88745
88,685,695.0,89194
88,690,678.0,89600
88,695,676.0,90183
88,700,676.0,90703
88,705,670.0,91385
87,710,676.0,92095
87,715,669.0,92924
87,720,679.0,93593
87,725,672.0,94045
87,730,680.0,94791
87,735,688.0,95321
87,740,678.0,95812
87,745,664.0,96292
87,750,679.0,96816
87,755,664.0,97413
87,760,679.0,98234
87,765,686.0,98956
86,770,694.0,99683
86,775,695.0,100214
86,780,685.0,100608
86,785,695.0,101468
86,790,725.0,102194
86,795,737.0,102892
86,800,737.0,103459
86,805,735.0,103886
86,810,741.0,104491
86,815,757.0,105135
86,820,764.0,105819
86,825,763.0,106404
86,830,751.0,106857
85,835,748.0,107272
85,840,771.0,107869
85,845,777.0,108342
85,850,785.0,109009
85,855,797.0,109870
85,860,783.0,110352
85,865,788.0,110960
85,870,791.0,111581
85,875,804.0,112172
85,880,812.0,112663
85,885,827.0,113547
85,890,809.0,113909
85,895,805.0,114530
84,900,807.0,115016
84,905,799.0,115399
84,910,785.0,115801
84,915,767.0,116553
84,920,766.0,117062
84,925,780.0,117750
84,930,790.0,118413
84,935,810.0,119053
84,940,812.0,119731
84,945,808.0,120253
84,950,797.0,120692
84,955,796.0,121340
84,960,804.0,122046
83,965,791.0,122499
83,970,784.0,122982
83,975,774.0,123371
83,980,782.0,123844
83,985,774.0,124491
83,990,788.0,125173
83,995,795.0,125855
83,1000,788.0,126197
83,1005,808.0,126747
83,1010,830.0,127525
83,1015,845.0,128208
83,1020,849.0,128877
83,1025,837.0,129390
83,1030,833.0,130065
82,1035,827.0,130637
82,1040,831.0,131063
82,1045,850.0,131553
82,1050,857.0,132063
82,1055,841.0,132443
82,1060,840.0,132964
82,1065,848.0,133729
82,1070,834.0,133997
82,1075,854.0,134651
82,1080,861.0,135430
82,1085,841.0,136067
82,1090,845.0,136723
82,1095,861.0,137480
81,1100,895.0,138114
81,1105,895.0,138591
81,1110,887.0,139168
81,1115,880.0,139777
81,1120,891.0,140533
81,1125,906.0,141256
81,1130,906.0,141759
81,1135,908.0,142403
81,1140,887.0,142839
81,1145,885.0,143692
81,1150,866.0,144004
81,1155,854.0,144358
81,1160,850.0,144873
81,1165,843.0,145105
80,1170,865.0,145805
80,1175,841.0,146177
80,1180,840.0,146841
80,1185,858.0,147324
80,1190,860.0,148107
80,1195,842.0,148795
80,1200,825.0,149248
80,1205,814.0,149552
80,1210,821.0,150274
80,1215,820.0,150831
80,1220,801.0,151333
80,1225,808.0,151994
80,1230,815.0,152489
80,1235,807.0,153027
79,1240,824.0,153631
79,1245,810.0,154022
79,1250,838.0,154606
79,1255,858.0,155060
79,1260,854.0,155549
79,1265,863.0,156018
79,1270,847.0,156266
79,1275,854.0,156768
79,1280,844.0,157319
79,1285,850.0,157939
79,1290,838.0,158514
79,1295,833.0,158957
79,1300,849.0,159558
79,1305,874.0,160214
79,1310,852.0,160608
78,1315,858.0,161101
78,1320,869.0,161584
78,1325,850.0,162270
78,1330,858.0,162827
78,1335,860.0,163374
78,1340,873.0,164094
78,1345,904.0,164826
78,1350,902.0,165516
78,1355,906.0,166037
78,1360,927.0,166787
78,1365,924.0,167213
78,1370,935.0,167633
78,1375,960.0,168234
77,1380,1003.0,169063
77,1385,1010.0,169734
77,1390,1016.0,170288
77,1395,1019.0,170823
77,1400,995.0,171358
77,1405,1004.0,172311
77,1410,1025.0,172950
77,1415,1018.0,173447
77,1420,1027.0,174143
77,1425,1041.0,174788
77,1430,1035.0,175372
77,1435,1042.0,175886
76,1440,1043.0,176585
76,1445,1041.0,177318
76,1450,1044.0,177982
76,1455,1040.0,178454
76,1460,1025.0,178937
76,1465,1044.0,179463
76,1470,1059.0,180187
76,1475,1055.0,180884
76,1480,1020.0,181330
76,1485,1013.0,181883
76,1490,1001.0,182407
76,1495,1001.0,182953
75,1500,1051.0,183722
75,1505,1040.0,184256
75,1510,1020.0,184657
75,1515,1020.0,185081
75,1520,1008.0,185477
75,1525,996.0,185917
75,1530,992.0,186329
75,1535,995.0,186817
75,1540,1012.0,187641
75,1545,1009.0,188297
75,1550,994.0,188711
75,1555,1019.0,189265
75,1560,1030.0,189909
75,1565,1030.0,190488
75,1570,1042.0,191090
74,1575,1008.0,191406
74,1580,1008.0,191819
74,1585,1009.0,192397
74,1590,1008.0,192818
74,1595,1018.0,193367
74,1600,991.0,193963
74,1605,1003.0,194744
74,1610,1027.0,195453
74,1615,1033.0,196022
74,1620,1046.0,196692
74,1625,1053.0,197055
74,1630,1068.0,197689
74,1635,1077.0,198287
74,1640,1030.0,198611
73,1645,1022.0,199225
73,1650,1032.0,199684
73,1655,1024.0,200171
73,1660,1016.0,200577
73,1665,1009.0,201085
73,1670,1011.0,201790
73,1675,1032.0,202353
73,1680,1026.0,202723
73,1685,1052.0,203705
73,1690,1071.0,204459
73,1695,1061.0,204936
73,1700,1036.0,205136
73,1705,1002.0,205494
73,1710,1011.0,206227
72,1715,1013.0,206756
72,1720,999.0,207135
72,1725,1025.0,207838
72,1730,1014.0,208154
72,1735,1016.0,208724
72,1740,1023.0,209252
72,1745,1040.0,209975
72,1750,1068.0,210817
72,1755,1074.0,211442
72,1760,1062.0,211834
72,1765,1079.0,212549
72,1770,1072.0,213264
72,1775,1116.0,214140
71,1780,1124.0,214607
71,1785,1091.0,215084
71,1790,1066.0,215471
71,1795,1048.0,215703
71,1800,1072.0,216259
71,1805,1079.0,216736
71,1810,1084.0,217397
71,1815,1079.0,217856
71,1820,1091.0,218584
71,1825,1087.0,219132
71,1830,1117.0,219968
71,1835,1123.0,220664
71,1840,1124.0,221046
71,1845,1099.0,221439
70,1850,1077.0,222114
70,1855,1099.0,222886
70,1860,1130.0,223532
70,1865,1122.0,224009
70,1870,1098.0,224291
70,1875,1059.0,224812
70,1880,1070.0,225373
70,1885,1088.0,226023
70,1890,1129.0,226718
70,1895,1136.0,226966
70,1900,1125.0,227362
70,1905,1148.0,227934
70,1910,1128.0,228329
70,1915,1120.0,228714
70,1920,1134.0,229375
69,1925,1122.0,229895
69,1930,1120.0,230565
69,1935,1108.0,231173
69,1940,1125.0,231777
69,1945,1122.0,232317
69,1950,1126.0,232946
69,1955,1113.0,233737
69,1960,1107.0,234281
69,1965,1127.0,235054
69,1970,1146.0,235587
69,1975,1158.0,236215
69,1980,1159.0,236801
68,1985,1175.0,237541
68,1990,1141.0,237980
68,1995,1163.0,238593
68,2000,1183.0,239170
68,2005,1188.0,239846
68,2010,1188.0,240299
68,2015,1184.0,240521
68,2020,1152.0,240888
68,2025,1165.0,241685
68,2030,1150.0,242252
68,2035,1164.0,242861
68,2040,1171.0,243387
68,2045,1189.0,243842
68,2050,1168.0,244086
68,2055,1163.0,244647
67,2060,1178.0,245309
67,2065,1182.0,246136
67,2070,1199.0,246808
67,2075,1203.0,247488
67,2080,1182.0,247790
67,2085,1188.0,248732
67,2090,1216.0,249294
67,2095,1231.0,250003
67,2100,1225.0,250578
67,2105,1233.0,251301
67,2110,1259.0,251961
66,2115,1303.0,252684
66,2120,1337.0,253534
66,2125,1336.0,254096
66,2130,1358.0,254803
66,2135,1366.0,255433
66,2140,1384.0,256198
66,2145,1392.0,256957
66,2150,1407.0,257416
66,2155,1408.0,258177
66,2160,1429.0,259031
66,2165,1438.0,259878
65,2170,1415.0,260378
65,2175,1420.0,260938
65,2180,1433.0,261429
65,2185,1434.0,262130
65,2190,1418.0,262489
65,2195,1438.0,263270
65,2200,1433.0,263785
65,2205,1400.0,264154
65,2210,1373.0,264553
65,2215,1354.0,265078
65,2220,1341.0,265501
65,2225,1355.0,266234
65,2230,1332.0,266590
65,2235,1300.0,267061
65,2240,1280.0,267725
64,2245,1264.0,268034
64,2250,1243.0,268318
64,2255,1280.0,269313
64,2260,1220.0,269499
64,2265,1184.0,269962
64,2270,1218.0,270648
64,2275,1209.0,271290
64,2280,1229.0,271947
64,2285,1173.0,272169
64,2290,1202.0,272893
64,2295,1192.0,273743
64,2300,1234.0,274553
64,2305,1280.0,275352
63,2310,1312.0,275898
63,2315,1339.0,276701
63,2320,1338.0,277307
63,2325,1323.0,277961
63,2330,1319.0,278479
63,2335,1365.0,279352
63,2340,1369.0,280071
63,2345,1422.0,280927
63,2350,1476.0,281682
63,2355,1468.0,282494
63,2360,1506.0,283088
62,2365,1522.0,283682
62,2370,1505.0,284179
62,2375,1486.0,284596
62,2380,1513.0,285376
62,2385,1525.0,285771
62,2390,1500.0,286262
62,2395,1499.0,287012
62,2400,1485.0,287678
62,2405,1459.0,288125
62,2410,1453.0,288739
62,2415,1456.0,289456
62,2420,1486.0,290076
62,2425,1493.0,290665
61,2430,1524.0,291496
61,2435,1515.0,292297
61,2440,1525.0,292988
61,2445,1477.0,293574
61,2450,1467.0,294327
61,2455,1410.0,294666
61,2460,1380.0,295007
61,2465,1358.0,295373
61,2470,1368.0,295963
61,2475,1387.0,296740
61,2480,1357.0,297271
61,2485,1372.0,297706
61,2490,1367.0,298314
60,2495,1329.0,298594
60,2500,1346.0,299542
60,2505,1354.0,300221
60,2510,1353.0,300862
60,2515,1294.0,301040
60,2520,1283.0,301763
60,2525,1277.0,302345
60,2530,1277.0,303110
60,2535,1258.0,303702
60,2540,1268.0,304506
60,2545,1287.0,305255
60,2550,1276.0,305926
59,2555,1329.0,306921
59,2560,1368.0,307592
59,2565,1374.0,308082
59,2570,1373.0,308849
59,2575,1362.0,309316
59,2580,1370.0,310117
59,2585,1393.0,310813
59,2590,1405.0,311362
59,2595,1407.0,311673
59,2600,1392.0,312609
59,2605,1373.0,313012
59,2610,1377.0,313685
58,2615,1376.0,313889
58,2620,1356.0,314338
58,2625,1347.0,314819
58,2630,1303.0,315081
58,2635,1324.0,315701
58,2640,1309.0,316421
58,2645,1326.0,317253
58,2650,1319.0,317640
58,2655,1323.0,318312
58,2660,1318.0,318935
58,2665,1336.0,319576
58,2670,1364.0,320571
58,2675,1395.0,321283
57,2680,1386.0,321853
57,2685,1416.0,322735
57,2690,1427.0,323286
57,2695,1480.0,324089
57,2700,1467.0,324604
57,2705,1512.0,325452
57,2710,1518.0,326171
57,2715,1544.0,326612
57,2720,1599.0,327469
57,2725,1609.0,327999
57,2730,1626.0,328467
57,2735,1607.0,329076
56,2740,1645.0,329929
56,2745,1625.0,330441
56,2750,1654.0,331168
56,2755,1630.0,331733
56,2760,1640.0,332473
56,2765,1649.0,333101
56,2770,1640.0,333864
56,2775,1623.0,334466
56,2780,1656.0,335206
56,2785,1612.0,335834
56,2790,1599.0,336267
56,2795,1559.0,336668
55,2800,1559.0,337160
55,2805,1536.0,337796
55,2810,1543.0,338488
55,2815,1587.0,339228
55,2820,1558.0,339882
55,2825,1530.0,340237
55,2830,1535.0,340779
55,2835,1555.0,341425
55,2840,1536.0,342142
55,2845,1534.0,342671
55,2850,1540.0,343469
55,2855,1565.0,344210
54,2860,1517.0,344390
54,2865,1538.0,345081
54,2870,1526.0,345733
54,2875,1523.0,346142
54,2880,1508.0,346819
54,2885,1540.0,347598
54,2890,1569.0,348418
54,2895,1579.0,349028
54,2900,1605.0,349860
54,2905,1583.0,350243
54,2910,1586.0,350789
54,2915,1559.0,351314
54,2920,1552.0,351809
53,2925,1572.0,352349
53,2930,1609.0,353181
53,2935,1591.0,353725
53,2940,1561.0,354235
53,2945,1582.0,355000
53,2950,1603.0,355764
53,2955,1592.0,356330
53,2960,1642.0,356970
53,2965,1647.0,357796
53,2970,1660.0,358579
53,2975,1661.0,359091
52,2980,1667.0,359799
52,2985,1679.0,360598
52,2990,1655.0,361097
52,2995,1675.0,361787
52,3000,1663.0,362556
52,3005,1678.0,363120
52,3010,1651.0,363616
52,3015,1653.0,364242
52,3020,1672.0,364897
52,3025,1692.0,365531
52,3030,1680.0,366228
52,3035,1659.0,366492
51,3040,1706.0,367476
51,3045,1693.0,368066
51,3050,1664.0,368722
51,3055,1651.0,369348
51,3060,1684.0,370233
51,3065,1652.0,370794
51,3070,1647.0,371599
51,3075,1667.0,372279
51,3080,1672.0,372970
51,3085,1606.0,373411
51,3090,1645.0,374263
51,3095,1622.0,374751
50,3100,1644.0,375534
50,3105,1671.0,376348
50,3110,1712.0,377114
50,3115,1706.0,377583
50,3120,1699.0,378195
50,3125,1691.0,378781
50,3130,1697.0,379481
50,3135,1753.0,380169
50,3140,1707.0,380541
50,3145,1695.0,380950
50,3150,1675.0,381371
50,3155,1672.0,381790
50,3160,1657.0,382522
49,3165,1645.0,383002
49,3170,1631.0,383544
49,3175,1613.0,384034
49,3180,1606.0,384739
49,3185,1648.0,385351
49,3190,1633.0,385940
49,3195,1674.0,386610
49,3200,1663.0,387272
49,3205,1654.0,387799
49,3210,1601.0,388261
49,3215,1638.0,388877
49,3220,1628.0,389423
49,3225,1642.0,390031
48,3230,1637.0,390708
48,3235,1646.0,391550
48,3240,1658.0,392144
48,3245,1678.0,392735
48,3250,1687.0,393275
48,3255,1737.0,394270
48,3260,1738.0,395164
48,3265,1757.0,395784
48,3270,1771.0,396507
48,3275,1808.0,397261
47,3280,1837.0,398143
47,3285,1832.0,398761
47,3290,1820.0,399378
47,3295,1796.0,399841
47,3300,1784.0,400377
47,3305,1751.0,400740
47,3310,1786.0,401294
47,3315,1795.0,402137
47,3320,1809.0,402769
47,3325,1830.0,403523
47,3330,1836.0,404245
47,3335,1815.0,404862
46,3340,1862.0,405746
46,3345,1864.0,406261
46,3350,1899.0,407097
46,3355,1876.0,407764
46,3360,1857.0,408559
46,3365,1863.0,409039
46,3370,1900.0,409879
46,3375,1853.0,410242
46,3380,1803.0,410629
46,3385,1795.0,411023
46,3390,1814.0,411839
46,3395,1854.0,412658
45,3400,1860.0,413312
45,3405,1889.0,413790
45,3410,1889.0,414468
45,3415,1857.0,415054
45,3420,1861.0,415758
45,3425,1854.0,416401
45,3430,1855.0,417261
45,3435,1861.0,417975
45,3440,1823.0,418468
45,3445,1831.0,419251
45,3450,1824.0,419972
45,3455,1829.0,420707
44,3460,1854.0,421454
44,3465,1851.0,421966
44,3470,1783.0,422334
44,3475,1839.0,423141
44,3480,1869.0,423817
44,3485,1868.0,424201
44,3490,1866.0,424956
44,3495,1852.0,425650
44,3500,1835.0,426053
44,3505,1843.0,426565
44,3510,1848.0,427334
44,3515,1869.0,427936
44,3520,1845.0,428411
43,3525,1823.0,429046
43,3530,1833.0,429731
43,3535,1840.0,430557
43,3540,1815.0,430902
43,3545,1824.0,431552
43,3550,1810.0,431968
43,3555,1793.0,432499
43,3560,1759.0,433008
43,3565,1785.0,433817
43,3570,1813.0,434458
43,3575,1814.0,435301
43,3580,1822.0,436123
42,3585,1845.0,436705
42,3590,1852.0,437296
42,3595,1827.0,437695
42,3600,1851.0,438339
42,3605,1825.0,438665
42,3610,1855.0,439504
42,3615,1865.0,440281
42,3620,1867.0,440726
42,3625,1878.0,441310
42,3630,1878.0,441938
42,3635,1855.0,442422
42,3640,1891.0,443075
42,3645,1863.0,443578
41,3650,1868.0,444237
41,3655,1911.0,445046
41,3660,1914.0,445558
41,3665,1888.0,446219
41,3670,1877.0,446691
41,3675,1828.0,447104
41,3680,1856.0,447980
41,3685,1857.0,448587
41,3690,1853.0,449230
41,3695,1875.0,449855
41,3700,1897.0,450691
41,3705,1946.0,451422
40,3710,1917.0,452024
40,3715,1939.0,452982
40,3720,1971.0,453686
40,3725,1962.0,454206
40,3730,1950.0,454755
40,3735,1952.0,455260
40,3740,1983.0,455923
40,3745,1980.0,456306
40,3750,1984.0,456852
40,3755,1968.0,457582
40,3760,1947.0,457977
40,3765,1997.0,458957
39,3770,2023.0,459689
39,3775,2033.0,460005
39,3780,2019.0,460813
39,3785,2017.0,461453
39,3790,2019.0,462045
39,3795,2014.0,462640
39,3800,2006.0,463241
39,3805,1990.0,463797
39,3810,2001.0,464428
39,3815,1953.0,464979
39,3820,1927.0,465428
39,3825,1951.0,466002
39,3830,1988.0,466734
38,3835,1986.0,467243
38,3840,1974.0,468004
38,3845,2018.0,468710
38,3850,2039.0,469555
38,3855,2028.0,470231
38,3860,2078.0,471022
38,3865,2073.0,471991
38,3870,2099.0,472815
38,3875,2089.0,473133
38,3880,2053.0,473700
38,3885,2030.0,474127
37,3890,2042.0,474787
37,3895,2053.0,475551
37,3900,2074.0,476333
37,3905,2079.0,476895
37,3910,2085.0,477543
37,3915,2079.0,477921
37,3920,2126.0,478841
37,3925,2150.0,479624
37,3930,2153.0,480423
37,3935,2161.0,480930
37,3940,2191.0,481866
36,3945,2192.0,482510
36,3950,2224.0,483468
36,3955,2211.0,483998
36,3960,2200.0,484616
36,3965,2200.0,485457
36,3970,2202.0,486155
36,3975,2250.0,486888
36,3980,2297.0,487738
36,3985,2341.0,488445
36,3990,2327.0,488995
35,3995,2338.0,489806
35,4000,2346.0,490633
35,4005,2378.0,491433
35,4010,2392.0,492353
35,4015,2415.0,492971
35,4020,2410.0,493573
35,4025,2398.0,494304
35,4030,2356.0,494969
35,4035,2383.0,495599
35,4040,2342.0,496142
35,4045,2358.0,496784
35,4050,2302.0,497361
34,4055,2334.0,498141
34,4060,2379.0,499049
34,4065,2376.0,499880
34,4070,2373.0,500651
34,4075,2376.0,501224
34,4080,2356.0,501893
34,4085,2384.0,502799
34,4090,2402.0,503477
34,4095,2351.0,503821
34,4100,2336.0,504539
33,4105,2326.0,505328
33,4110,2276.0,505818
33,4115,2334.0,506605
33,4120,2304.0,507167
33,4125,2317.0,508060
33,4130,2306.0,508527
33,4135,2291.0,509049
33,4140,2266.0,509457
33,4145,2291.0,510380
33,4150,2322.0,511204
33,4155,2317.0,511761
33,4160,2303.0,512520
32,4165,2279.0,513102
32,4170,2299.0,513997
32,4175,2287.0,514715
32,4180,2272.0,515261
32,4185,2258.0,516021
32,4190,2276.0,516870
32,4195,2328.0,517484
32,4200,2315.0,518257
32,4205,2328.0,519046
32,4210,2355.0,519708
32,4215,2291.0,520302
31,4220,2341.0,521129
31,4225,2349.0,521903
31,4230,2348.0,522439
31,4235,2337.0,523014
31,4240,2371.0,523727
31,4245,2352.0,524537
31,4250,2335.0,525385
31,4255,2356.0,526294
31,4260,2390.0,527182
31,4265,2425.0,527885
30,4270,2407.0,528701
30,4275,2435.0,529659
30,4280,2481.0,530408
30,4285,2507.0,531190
30,4290,2480.0,531853
30,4295,2454.0,532416
30,4300,2453.0,533173
30,4305,2447.0,533927
30,4310,2473.0,534889
30,4315,2443.0,535262
29,4320,2401.0,535887
29,4325,2389.0,536518
29,4330,2431.0,537196
29,4335,2450.0,537834
29,4340,2418.0,538305
29,4345,2417.0,539089
29,4350,2451.0,539920
29,4355,2472.0,540753
29,4360,2430.0,541495
29,4365,2375.0,542059
29,4370,2387.0,542984
28,4375,2394.0,543761
28,4380,2389.0,544476
28,4385,2379.0,545427
28,4390,2386.0,545974
28,4395,2393.0,546538
28,4400,2419.0,547314
28,4405,2423.0,548155
28,4410,2388.0,548678
28,4415,2478.0,549636
28,4420,2478.0,550101
28,4425,2476.0,550706
27,4430,2478.0,551454
27,4435,2494.0,552185
27,4440,2562.0,553136
27,4445,2544.0,553849
27,4450,2564.0,554635
27,4455,2546.0,555397
27,4460,2541.0,556155
27,4465,2599.0,556792
27,4470,2570.0,557482
27,4475,2562.0,558035
26,4480,2542.0,558696
26,4485,2546.0,559474
26,4490,2581.0,560154
26,4495,2619.0,561149
26,4500,2610.0,561843
26,4505,2603.0,562612
26,4510,2641.0,563364
26,4515,2576.0,563909
26,4520,2598.0,564662
26,4525,2613.0,565475
26,4530,2602.0,566121
25,4535,2558.0,566679
25,4540,2551.0,567378
25,4545,2562.0,568137
25,4550,2546.0,569023
25,4555,2537.0,569572
25,4560,2548.0,570257
25,4565,2576.0,571122
25,4570,2602.0,571912
25,4575,2620.0,572731
25,4580,2655.0,573550
24,4585,2582.0,574018
24,4590,2583.0,574763
24,4595,2577.0,575619
24,4600,2613.0,576479
24,4605,2596.0,577136
24,4610,2610.0,578131
24,4615,2690.0,579083
24,4620,2651.0,579399
24,4625,2612.0,580004
24,4630,2637.0,580936
24,4635,2663.0,581487
23,4640,2675.0,582423
23,4645,2686.0,583238
23,4650,2655.0,584056
23,4655,2666.0,584964
23,4660,2673.0,585810
23,4665,2673.0,586724
23,4670,2661.0,587542
23,4675,2671.0,588280
23,4680,2685.0,588975
22,4685,2779.0,589831
22,4690,2714.0,590222
22,4695,2702.0,590885
22,4700,2610.0,591328
22,4705,2647.0,592240
22,4710,2658.0,593042
22,4715,2637.0,593996
22,4720,2718.0,594984
22,4725,2751.0,595822
22,4730,2779.0,596815
21,4735,2773.0,597318
21,4740,2787.0,598209
21,4745,2798.0,598897
21,4750,2830.0,599600
21,4755,2827.0,600595
21,4760,2838.0,601369
21,4765,2806.0,602106
21,4770,2826.0,602852
21,4775,2800.0,603492
21,4780,2751.0,604118
20,4785,2747.0,604987
20,4790,2825.0,605749
20,4795,2862.0,606598
20,4800,2939.0,607578
20,4805,2922.0,608447
20,4810,2892.0,609190
20,4815,2892.0,609932
20,4820,2845.0,610536
20,4825,2861.0,611253
20,4830,2855.0,612074
19,4835,2890.0,612815
19,4840,2863.0,613589
19,4845,2855.0,614338
19,4850,2869.0,615150
19,4855,2861.0,615663
19,4860,2848.0,616492
19,4865,2853.0,617274
19,4870,2871.0,618101
19,4875,2887.0,618888
19,4880,2917.0,619719
18,4885,2932.0,620493
18,4890,2915.0,621296
18,4895,2848.0,621715
18,4900,2838.0,622255
18,4905,2871.0,623004
18,4910,2889.0,623811
18,4915,2891.0,624679
18,4920,2924.0,625548
18,4925,2913.0,626273
18,4930,2933.0,627047
17,4935,2950.0,627970
17,4940,2931.0,628707
17,4945,2901.0,629438
17,4950,2846.0,629940
17,4955,2846.0,630748
17,4960,2818.0,631389
17,4965,2835.0,632317
17,4970,2813.0,633015
17,4975,2741.0,633351
17,4980,2739.0,634346
17,4985,2692.0,635165
16,4990,2673.0,635792
16,4995,2712.0,636534
16,5000,2721.0,637355
16,5005,2689.0,637994
16,5010,2716.0,638730
16,5015,2734.0,639636
16,5020,2740.0,640404
16,5025,2754.0,641285
16,5030,2759.0,642134
15,5035,2762.0,643072
15,5040,2804.0,644008
15,5045,2834.0,644827
15,5050,2900.0,645646
15,5055,2871.0,646092
15,5060,2940.0,646857
15,5065,2929.0,647852
15,5070,2910.0,648579
15,5075,2984.0,649191
15,5080,3009.0,650126
14,5085,3059.0,650824
14,5090,3097.0,651646
14,5095,3120.0,652529
14,5100,3122.0,653243
14,5105,3140.0,654021
14,5110,3129.0,655016
14,5115,3089.0,655817
14,5120,3073.0,656679
14,5125,3084.0,657507
13,5130,3042.0,658398
13,5135,2993.0,659030
13,5140,2987.0,659858
13,5145,2991.0,660681
13,5150,2979.0,661540
13,5155,3071.0,662291
13,5160,3059.0,663021
13,5165,3072.0,663949
13,5170,3096.0,664625
13,5175,3118.0,665471
12,5180,3083.0,666226
12,5185,3053.0,667022
12,5190,3061.0,667954
12,5195,3065.0,668893
12,5200,3050.0,669520
12,5205,3029.0,670099
12,5210,3052.0,670944
12,5215,3091.0,671612
12,5220,3122.0,672430
12,5225,3156.0,673209
11,5230,3175.0,674074
11,5235,3232.0,675005
11,5240,3232.0,675759
11,5245,3258.0,676588
11,5250,3253.0,677425
11,5255,3223.0,678363
11,5260,3205.0,679136
11,5265,3233.0,679912
11,5270,3259.0,680801
10,5275,3243.0,681446
10,5280,3279.0,682183
10,5285,3261.0,682775
10,5290,3257.0,683678
10,5295,3258.0,684600
10,5300,3271.0,685214
10,5305,3287.0,685794
10,5310,3234.0,686270
10,5315,3254.0,687009
10,5320,3278.0,687814
10,5325,3240.0,688600
9,5330,3261.0,689278
9,5335,3234.0,690022
9,5340,3216.0,690752
9,5345,3199.0,691327
9,5350,3216.0,692122
9,5355,3229.0,692972
9,5360,3182.0,693292
9,5365,3162.0,694041
9,5370,3143.0,694755
9,5375,3148.0,695709
8,5380,3138.0,696438
8,5385,3183.0,697110
8,5390,3163.0,697744
8,5395,3158.0,698500
8,5400,3167.0,699396
8,5405,3177.0,699914
8,5410,3191.0,700495
8,5415,3185.0,701252
8,5420,3166.0,702010
8,5425,3126.0,702594
8,5430,3120.0,703407
7,5435,3137.0,704091
7,5440,3159.0,704785
7,5445,3174.0,705554
7,5450,3138.0,706109
7,5455,3101.0,706762
7,5460,3132.0,707421
7,5465,3132.0,708209
7,5470,3169.0,709057
7,5475,3163.0,709927
7,5480,3189.0,710624
7,5485,3195.0,711385
6,5490,3196.0,712014
6,5495,3210.0,712808
6,5500,3202.0,713451
6,5505,3204.0,714147
6,5510,3249.0,714749
6,5515,3228.0,715296
6,5520,3235.0,716030
6,5525,3279.0,716822
6,5530,3288.0,717554
6,5535,3277.0,718076
6,5540,3273.0,718759
5,5545,3301.0,719469
5,5550,3324.0,720293
5,5555,3340.0,720975
5,5560,3363.0,721749
5,5565,3352.0,722691
5,5570,3317.0,723367
5,5575,3283.0,723873
5,5580,3267.0,724672
5,5585,3259.0,725457
5,5590,3258.0,726050
5,5595,3216.0,726504
4,5600,3220.0,727162
4,5605,3260.0,727807
4,5610,3270.0,728498
4,5615,3292.0,729258
4,5620,3304.0,730078
4,5625,3305.0,730594
4,5630,3306.0,731277
4,5635,3318.0,731936
4,5640,3323.0,732506
4,5645,3288.0,733229
4,5650,3289.0,733745
4,5655,3323.0,734481
3,5660,3368.0,735128
3,5665,3368.0,735801
3,5670,3381.0,736341
3,5675,3444.0,736919
3,5680,3472.0,737588
3,5685,3477.0,738150
3,5690,3497.0,738667
3,5695,3533.0,739256
3,5700,3581.0,739858
3,5705,3588.0,740475
3,5710,3570.0,741247
3,5715,3578.0,741958
2,5720,3574.0,742532
2,5725,3530.0,743017
2,5730,3470.0,743520
2,5735,3484.0,744181
2,5740,3525.0,744776
2,5745,3536.0,745616
2,5750,3486.0,746029
2,5755,3442.0,746451
2,5760,3403.0,747124
2,5765,3436.0,747804
2,5770,3467.0,748490
2,5775,3440.0,749087
2,5780,3419.0,749941
2,5785,3412.0,750713
2,5790,3409.0,751363
2,5795,3423.0,751970
2,5800,3387.0,752650
2,5805,3372.0,753383
2,5810,3370.0,753905
2,5815,3351.0,754590
2,5820,3342.0,755352
2,5825,3410.0,756101
2,5830,3487.0,756702
2,5835,3476.0,757161
2,5840,3459.0,757976
2,5845,3489.0,758582
2,5850,3537.0,759198
2,5855,3590.0,759838
2,5860,3620.0,760373
2,5865,3625.0,761057
2,5870,3625.0,761645
2,5875,3622.0,762173
2,5880,3633.0,762925
2,5885,3593.0,763467
2,5890,3628.0,764221
2,5895,3586.0,764766
2,5900,3606.0,765518
2,5905,3577.0,766129
2,5910,3567.0,766741
2,5915,3593.0,767412
2,5920,3604.0,768226
2,5925,3582.0,768884
2,5930,3575.0,769564
2,5935,3619.0,770234
2,5940,3638.0,770902
2,5945,3638.0,771506
2,5950,3643.0,772027
2,5955,3619.0,772619
2,5960,3618.0,773356
2,5965,3624.0,774044
2,5970,3596.0,774549
2,5975,3608.0,775141
2,5980,3534.0,775474
2,5985,3570.0,776066
2,5990,3544.0,776566
2,5995,3614.0,777245
2,6000,3632.0,778004
2,6005,3675.0,778604
2,6010,3704.0,779224
2,6015,3617.0,779610
2,6020,3568.0,780022
2,6025,3557.0,780516
2,6030,3554.0,781154
2,6035,3494.0,781568
2,6040,3495.0,782177
2,6045,3486.0,782868
2,6050,3514.0,783537
2,6055,3488.0,784114
2,6060,3464.0,784745
2,6065,3449.0,785494
2,6070,3450.0,786004
2,6075,3457.0,786517
2,6080,3508.0,787106
2,6085,3503.0,787689
2,6090,3532.0,788281
2,6095,3517.0,789038
2,6100,3475.0,789615
2,6105,3433.0,790279
2,6110,3432.0,790949
2,6115,3522.0,791616
2,6120,3583.0,792213
2,6125,3622.0,793025
2,6130,3624.0,793704
2,6135,3668.0,794256
2,6140,3647.0,795012
2,6145,3639.0,795701
2,6150,3650.0,796370
2,6155,3707.0,796960
2,6160,3718.0,797549
2,6165,3688.0,798208
2,6170,3682.0,798886
2,6175,3619.0,799223
2,6180,3650.0,799894
2,6185,3666.0,800721
2,6190,3667.0,801321
2,6195,3679.0,801997
2,6200,3724.0,802604
2,6205,3758.0,803279
2,6210,3731.0,803836
2,6215,3693.0,804425
2,6220,3679.0,805081
2,6225,3661.0,805672
2,6230,3669.0,806274
2,6235,3677.0,806902
2,6240,3696.0,807579
2,6245,3694.0,808407
2,6250,3657.0,809077
2,6255,3646.0,809757
2,6260,3656.0,810508
2,6265,3703.0,811096
2,6270,3724.0,811692
2,6275,3797.0,812383
2,6280,3788.0,813010
2,6285,3802.0,813688
2,6290,3776.0,814422
2,6295,3770.0,815170
2,6300,3760.0,815768
2,6305,3733.0,816336
2,6310,3763.0,816929
2,6315,3794.0,817580
2,6320,3796.0,818333
2,6325,3808.0,819164
2,6330,3805.0,819837
2,6335,3802.0,820515
2,6340,3787.0,821321
2,6345,3804.0,821992
2,6350,3831.0,822588
2,6355,3790.0,823076
2,6360,3801.0,823677
2,6365,3792.0,824375
2,6370,3790.0,825068
2,6375,3769.0,825643
2,6380,3785.0,826237
2,6385,3768.0,826746
2,6390,3792.0,827438
2,6395,3780.0,827964
2,6400,3788.0,828638
2,6405,3815.0,829318
2,6410,3802.0,830152
2,6415,3792.0,830776
2,6420,3805.0,831384
2,6425,3824.0,831987
2,6430,3826.0,832570
2,6435,3830.0,833204
2,6440,3814.0,834146
2,6445,3806.0,834822
2,6450,3798.0,835636
2,6455,3834.0,836313
2,6460,3843.0,836911
2,6465,3849.0,837538
2,6470,3863.0,838215
2,6475,3901.0,838887
2,6480,3858.0,839686
2,6485,3866.0,840439
2,6490,3826.0,841243
2,6495,3839.0,841910
2,6500,3838.0,842568
2,6505,3818.0,843073
2,6510,3829.0,843713
2,6515,3846.0,844300
2,6520,3846.0,844891
2,6525,3843.0,845594
2,6530,3843.0,846185
2,6535,3843.0,846819
2,6540,3872.0,847500
2,6545,3880.0,848109
2,6550,3875.0,848628
2,6555,3888.0,849303
2,6560,3877.0,850073
2,6565,3880.0,850678
2,6570,3881.0,851349
2,6575,3881.0,852012
2,6580,3909.0,852578
2,6585,3883.0,853037
2,6590,3913.0,853715
2,6595,3923.0,854316
2,6600,3926.0,854907
2,6605,3955.0,855589
2,6610,3946.0,856264
2,6615,3947.0,856869
2,6620,3940.0,857627
2,6625,3942.0,858223
2,6630,3942.0,858811
2,6635,3927.0,859588
2,6640,3931.0,860274
2,6645,3929.0,860958
2,6650,3916.0,861550
2,6655,3920.0,862143
2,6660,3929.0,862808
2,6665,3921.0,863483
2,6670,3913.0,864244
2,6675,3915.0,864865
2,6680,3902.0,865370
2,6685,3945.0,865974
2,6690,3957.0,866569
2,6695,3954.0,867273
2,6700,3945.0,868003
2,6705,3916.0,868597
2,6710,3928.0,869192
2,6715,3924.0,869963
2,6720,3914.0,870546
2,6725,3902.0,871210
2,6730,3889.0,871885
2,6735,3904.0,872649
2,6740,3888.0,873402
2,6745,3890.0,874109
2,6750,3928.0,874702
2,6755,3905.0,875278
2,6760,3874.0,875933
2,6765,3873.0,876696
2,6770,3882.0,877350
2,6775,3875.0,878027
2,6780,3894.0,878791
2,6785,3892.0,879465
2,6790,3890.0,880187
2,6795,3861.0,880889
2,6800,3870.0,881489
2,6805,3900.0,882077
2,6810,3901.0,882678
2,6815,3880.0,883362
2,6820,3897.0,883970
2,6825,3910.0,884567
2,6830,3923.0,885249
2,6835,3930.0,885841
2,6840,3945.0,886526
2,6845,3947.0,887117
2,6850,3947.0,887738
2,6855,3968.0,888394
2,6860,3966.0,888983
2,6865,3976.0,889585
2,6870,3964.0,890259
2,6875,3971.0,890854
2,6880,3979.0,891535
2,6885,3980.0,892134
2,6890,3974.0,892810
2,6895,4006.0,893410
2,6900,4005.0,894007
2,6905,3985.0,894536
2,6910,3972.0,895216
2,6915,3981.0,896048
2,6920,3972.0,896731
2,6925,3944.0,897415
2,6930,3940.0,898197
2,6935,3908.0,898690
2,6940,3900.0,899358
2,6945,3900.0,899953
2,6950,3884.0,900499
2,6955,3884.0,901173
2,6960,3904.0,901855
2,6965,3904.0,902462
2,6970,3915.0,903061
2,6975,3905.0,903737
2,6980,3906.0,904360
2,6985,3903.0,905032
2,6990,3868.0,905625
2,6995,3866.0,906235
2,7000,3866.0,906831
2,7005,3884.0,907509
2,7010,3885.0,908191
2,7015,3901.0,908797
2,7020,3908.0,909394
2,7025,3936.0,909990
2,7030,3941.0,910575
2,7035,3973.0,911244
2,7040,3981.0,911860
2,7045,3979.0,912470
2,7050,3992.0,913068
2,7055,3989.0,913702
2,7060,4004.0,914318
2,7065,4002.0,915019
2,7070,4002.0,915635
2,7075,4002.0,916338
2,7080,3986.0,917076
2,7085,3983.0,917773
2,7090,4026.0,918380
2,7095,4026.0,919054
2,7100,4019.0,919824
2,7105,4013.0,920500
2,7110,3993.0,921101
2,7115,3993.0,921718
2,7120,3992.0,922408
2,7125,3991.0,923000
2,7130,3987.0,923683
2,7135,3975.0,924360
2,7140,3970.0,925046
2,7145,3943.0,925560
2,7150,3940.0,926239
2,7155,3941.0,926835
2,7160,3940.0,927442
2,7165,3911.0,928037
2,7170,3894.0,928751
2,7175,3896.0,929423
2,7180,3896.0,930188
2,7185,3887.0,930872
2,7190,3871.0,931434
2,7195,3864.0,932202
2,7200,3829.0,932877
2,7205,3836.0,933558
2,7210,3852.0,934107
2,7215,3852.0,934722
2,7220,3851.0,935413
2,7225,3851.0,936087
2,7230,3853.0,936761
2,7235,3866.0,937362
2,7240,3867.0,938106
2,7245,3895.0,938713
2,7250,3901.0,939305
2,7255,3905.0,939917
2,7260,3905.0,940511
2,7265,3901.0,941016
2,7270,3920.0,941614
2,7275,3929.0,942218
2,7280,3938.0,942914
2,7285,3934.0,943451
2,7290,3939.0,944169
2,7295,3947.0,944764
2,7300,3989.0,945445
2,7305,3991.0,946045
2,7310,4007.0,946654
2,7315,3994.0,947301
2,7320,3996.0,947987
2,7325,3996.0,948594
2,7330,3991.0,949273
2,7335,3989.0,949872
2,7340,3993.0,950469
2,7345,3990.0,951168
2,7350,3968.0,951887
2,7355,3967.0,952486
2,7360,3963.0,953157
2,7365,3997.0,953746
2,7370,3982.0,954431
2,7375,3966.0,955175
2,7380,3972.0,955772
2,7385,3991.0,956370
2,7390,4000.0,957064
2,7395,3999.0,957752
2,7400,3999.0,958363
2,7405,3998.0,958977
2,7410,3977.0,959684
2,7415,3989.0,960279
2,7420,3991.0,960899
2,7425,3983.0,961576
2,7430,3988.0,962172
2,7435,3988.0,962788
2,7440,3990.0,963380
2,7445,3993.0,963981
2,7450,4015.0,964580
2,7455,4015.0,965169
2,7460,4018.0,965766
2,7465,4014.0,966447
2,7470,4028.0,967060
2,7475,4042.0,967683
2,7480,4043.0,968359
2,7485,4043.0,968955
2,7490,4045.0,969567
2,7495,4047.0,970153
2,7500,4038.0,970924
2,7505,4031.0,971543
2,7510,4045.0,972230
2,7515,3991.0,972865
2,7520,3988.0,973544
2,7525,3965.0,974132
2,7530,3951.0,974815
2,7535,3925.0,975381
2,7540,3912.0,976062
2,7545,3904.0,976744
2,7550,3895.0,977404
2,7555,3880.0,978055
2,7560,3873.0,978737
2,7565,3866.0,979495
2,7570,3867.0,980148
2,7575,3861.0,980824
2,7580,3863.0,981420
2,7585,3860.0,982105
2,7590,3856.0,982743
2,7595,3855.0,983336
2,7600,3854.0,984031
2,7605,3857.0,984726
2,7610,3855.0,985436
2,7615,3910.0,986033
2,7620,3894.0,986572
2,7625,3918.0,987249
2,7630,3931.0,987836
2,7635,3951.0,988473
2,7640,3945.0,989031
2,7645,3941.0,989714
2,7650,3949.0,990310
2,7655,3965.0,990896
2,7660,3959.0,991583
2,7665,3952.0,992260
2,7670,3950.0,992863
2,7675,3957.0,993459
2,7680,3927.0,994224
2,7685,3909.0,994944
2,7690,3913.0,995536
2,7695,3910.0,996220
2,7700,3921.0,996818
2,7705,3925.0,997418
2,7710,3905.0,998179
2,7715,3899.0,998853
2,7720,3905.0,999453
2,7725,3910.0,1000140
2,7730,3911.0,1000749
2,7735,3918.0,1001341
2,7740,3908.0,1001863
2,7745,3918.0,1002480
2,7750,3919.0,1003070
2,7755,3918.0,1003677
2,7760,3928.0,1004324
2,7765,3945.0,1004922
2,7770,3946.0,1005521
2,7775,3947.0,1006119
2,7780,3976.0,1006793
2,7785,3997.0,1007404
2,7790,3996.0,1008011
2,7795,3997.0,1008692
2,7800,3996.0,1009303
2,7805,3989.0,1009965
2,7810,4018.0,1010621
2,7815,4023.0,1011218
2,7820,4031.0,1011900
2,7825,4034.0,1012494
2,7830,4024.0,1013059
2,7835,4003.0,1013805
2,7840,4011.0,1014441
2,7845,4014.0,1015033
2,7850,4013.0,1015639
2,7855,4011.0,1016225
2,7860,4016.0,1016823
2,7865,4018.0,1017421
2,7870,4018.0,1018016
2,7875,4018.0,1018610
2,7880,4016.0,1019347
2,7885,4014.0,1019958
2,7890,4015.0,1020556
2,7895,4007.0,1021227
2,7900,4006.0,1021843
2,7905,4004.0,1022518
2,7910,4002.0,1023196
2,7915,3988.0,1023874
2,7920,3993.0,1024468
2,7925,3984.0,1025140
2,7930,3991.0,1025818
2,7935,4000.0,1026562
2,7940,4001.0,1027110
2,7945,3998.0,1027800
2,7950,3997.0,1028485
2,7955,3979.0,1029023
2,7960,3978.0,1029625
2,7965,3976.0,1030219
2,7970,3975.0,1030808
2,7975,3964.0,1031726
2,7980,3966.0,1032331
2,7985,3959.0,1033005
2,7990,3957.0,1033621
2,7995,3968.0,1034229
2,8000,3957.0,1034794
2,8005,3967.0,1035397
2,8010,3949.0,1036164
2,8015,3964.0,1036759
2,8020,3960.0,1037356
2,8025,3968.0,1037943
2,8030,3973.0,1038545
2,8035,3963.0,1039303
2,8040,3983.0,1039903
2,8045,3984.0,1040507
2,8050,3985.0,1041103
2,8055,4006.0,1041689
2,8060,3999.0,1042428
2,8065,3987.0,1043102
2,8070,3989.0,1043698
2,8075,3990.0,1044361
2,8080,3980.0,1045004
2,8085,3990.0,1045604
2,8090,3990.0,1046200
2,8095,3987.0,1046789
2,8100,3999.0,1047391
2,8105,3999.0,1047992
2,8110,4019.0,1048638
2,8115,3991.0,1049180
2,8120,3993.0,1049866
2,8125,3994.0,1050466
2,8130,3991.0,1051074
2,8135,4013.0,1051676
2,8140,4012.0,1052350
2,8145,3955.0,1052775
2,8150,3956.0,1053392
2,8155,3911.0,1053866
2,8160,3918.0,1054470
2,8165,3932.0,1055088
2,8170,3922.0,1055772
2,8175,3923.0,1056448
2,8180,3925.0,1057105
2,8185,3925.0,1057705
2,8190,3927.0,1058296
2,8195,3929.0,1058971
2,8200,3928.0,1059644
2,8205,3911.0,1060246
2,8210,3903.0,1060836
2,8215,3920.0,1061511
2,8220,3920.0,1062109
2,8225,3918.0,1062715
2,8230,3921.0,1063319
2,8235,3919.0,1064008
2,8240,3920.0,1064607
2,8245,3977.0,1065214
2,8250,3974.0,1065814
2,8255,4018.0,1066492
2,8260,4018.0,1067082
2,8265,4017.0,1067681
2,8270,4026.0,1068290
2,8275,4035.0,1068895
2,8280,4039.0,1069501
2,8285,4026.0,1070181
2,8290,4026.0,1070763
2,8295,4026.0,1071358
2,8300,4016.0,1072034
2,8305,4019.0,1072714
2,8310,4027.0,1073312
2,8315,4037.0,1073913
2,8320,4023.0,1074497
2,8325,4016.0,1075184
2,8330,4014.0,1075872
2,8335,4012.0,1076494
2,8340,4012.0,1077093
2,8345,4014.0,1077710
2,8350,4012.0,1078389
2,8355,4012.0,1079020
2,8360,4012.0,1079621
2,8365,3996.0,1080307
2,8370,3996.0,1080990
2,8375,3995.0,1081590
2,8380,3997.0,1082255
2,8385,4010.0,1082854
2,8390,4008.0,1083453
2,8395,4005.0,1084122
2,8400,4007.0,1084804
2,8405,4021.0,1085409
2,8410,4021.0,1086085
2,8415,4022.0,1086686
2,8420,4037.0,1087283
2,8425,4044.0,1087881
2,8430,4045.0,1088478
2,8435,4049.0,1089079
2,8440,4048.0,1089751
2,8445,4038.0,1090431
2,8450,4043.0,1091031
2,8455,4044.0,1091651
2,8460,4029.0,1092391
2,8465,4046.0,1092987
2,8470,4025.0,1093606
2,8475,4005.0,1094141
2,8480,4006.0,1094739
2,8485,3998.0,1095400
2,8490,4000.0,1095994
2,8495,4004.0,1096592
2,8500,4012.0,1097203
2,8505,4010.0,1097871
2,8510,4004.0,1098551
2,8515,4004.0,1099159
2,8520,4002.0,1099763
2,8525,4004.0,1100369
2,8530,3986.0,1100915
2,8535,3976.0,1101587
2,8540,3977.0,1102176
2,8545,3986.0,1102809
2,8550,3970.0,1103444
2,8555,3970.0,1104049
2,8560,3984.0,1104731
2,8565,3975.0,1105409
2,8570,3989.0,1106089
2,8575,4006.0,1106770
2,8580,3996.0,1107354
2,8585,3986.0,1108062
2,8590,3985.0,1108741
2,8595,3970.0,1109358
2,8600,3970.0,1109959
2,8605,3972.0,1110552
2,8610,3979.0,1111155
2,8615,3960.0,1111701
2,8620,3960.0,1112303
2,8625,3960.0,1112900
2,8630,3974.0,1113501
2,8635,3984.0,1114103
2,8640,3983.0,1114694
2,8645,3982.0,1115375
2,8650,3970.0,1115898
2,8655,3967.0,1116499
2,8660,3956.0,1117331
2,8665,3964.0,1117926
2,8670,3972.0,1118515
2,8675,3957.0,1119214
2,8680,3968.0,1119892
2,8685,3985.0,1120494
2,8690,3984.0,1121090
2,8695,3997.0,1121765
2,8700,3998.0,1122374
2,8705,3998.0,1122979
2,8710,3992.0,1123655
2,8715,4005.0,1124335
2,8720,4008.0,1124925
2,8725,4007.0,1125606
2,8730,4009.0,1126253
2,8735,4010.0,1126856
2,8740,3991.0,1127479
2,8745,3991.0,1128156
2,8750,4013.0,1128832
2,8755,4007.0,1129514
2,8760,4015.0,1130199
2,8765,4015.0,1130806
2,8770,4001.0,1131437
2,8775,4019.0,1132034
2,8780,4012.0,1132654
2,8785,4013.0,1133267
2,8790,4011.0,1133947
2,8795,3999.0,1134628
2,8800,3982.0,1135364
2,8805,3981.0,1135965
2,8810,3987.0,1136567
2,8815,3987.0,1137244
2,8820,3986.0,1137852
2,8825,3986.0,1138450
2,8830,3968.0,1139078
2,8835,3968.0,1139688
2,8840,3958.0,1140200
2,8845,3959.0,1140801
2,8850,3964.0,1141389
2,8855,3971.0,1142011
2,8860,3975.0,1142618
2,8865,3974.0,1143215
2,8870,3977.0,1143892
2,8875,3977.0,1144491
2,8880,3984.0,1145088
2,8885,3971.0,1145767
2,8890,3975.0,1146372
2,8895,3979.0,1147060
2,8900,3993.0,1147756
2,8905,3993.0,1148353
2,8910,3990.0,1149017
2,8915,3996.0,1149636
2,8920,3930.0,1150034
2,8925,3917.0,1150713
2,8930,3919.0,1151364
2,8935,3918.0,1151960
2,8940,3947.0,1152552
2,8945,3885.0,1152995
2,8950,3884.0,1153622
2,8955,3885.0,1154231
2,8960,3872.0,1154913
2,8965,3870.0,1155516
2,8970,3879.0,1156118
2,8975,3879.0,1156726
2,8980,3870.0,1157404
2,8985,3882.0,1158002
2,8990,3882.0,1158599
2,8995,3892.0,1159199
2,9000,3886.0,1159878
2,9005,3883.0,1160489
2,9010,3885.0,1161090
2,9015,3867.0,1161846
2,9020,3933.0,1162448
2,9025,3939.0,1163127
2,9030,3954.0,1163797
2,9035,3946.0,1164439
2,9040,3917.0,1164952
2,9045,3970.0,1165708
2,9050,3971.0,1166391
2,9055,3972.0,1166997
2,9060,3906.0,1167386
2,9065,3891.0,1168131
2,9070,3862.0,1168664
2,9075,3862.0,1169268
2,9080,3866.0,1170015
2,9085,3866.0,1170619
2,9090,3863.0,1171297
2,9095,3846.0,1171858
2,9100,3855.0,1172543
2,9105,3833.0,1173170
2,9110,3833.0,1173783
2,9115,3843.0,1174427
2,9120,3843.0,1175043
2,9125,3836.0,1175722
2,9130,3825.0,1176406
2,9135,3824.0,1177086
2,9140,3844.0,1177761
2,9145,3848.0,1178519
2,9150,3849.0,1179130
2,9155,3849.0,1179741
2,9160,3928.0,1180344
2,9165,3930.0,1181017
2,9170,3959.0,1181696
2,9175,3948.0,1182295
2,9180,3953.0,1182901
2,9185,3954.0,1183510
2,9190,3943.0,1184192
2,9195,3959.0,1184791
2,9200,3957.0,1185392
2,9205,3979.0,1186065
2,9210,3968.0,1186735
2,9215,3958.0,1187492
2,9220,3959.0,1188086
2,9225,3965.0,1188665
2,9230,3979.0,1189259
2,9235,3987.0,1189858
2,9240,3980.0,1190427
2,9245,3954.0,1191109
2,9250,3952.0,1191712
2,9255,3945.0,1192309
2,9260,3929.0,1192980
2,9265,3933.0,1193574
2,9270,3904.0,1194079
2,9275,3864.0,1194729
2,9280,3865.0,1195334
2,9285,3850.0,1196096
2,9290,3861.0,1196694
2,9295,3857.0,1197383
2,9300,3857.0,1197979
2,9305,3860.0,1198573
2,9310,3872.0,1199180
2,9315,3886.0,1199861
2,9320,3873.0,1200527
2,9325,3880.0,1201250
2,9330,3875.0,1201935
2,9335,3875.0,1202542
2,9340,3861.0,1203047
2,9345,3892.0,1203632
2,9350,3890.0,1204314
2,9355,3894.0,1205084
2,9360,3909.0,1205686
2,9365,3902.0,1206520
2,9370,3932.0,1207121
2,9375,3970.0,1207805
2,9380,3969.0,1208414
2,9385,3977.0,1209115
2,9390,3979.0,1209708
2,9395,3984.0,1210296
2,9400,3984.0,1210978
2,9405,3979.0,1211558
2,9410,3948.0,1212167
2,9415,3952.0,1212762
2,9420,3956.0,1213448
2,9425,3948.0,1214192
2,9430,3954.0,1214784
2,9435,3954.0,1215378
2,9440,3925.0,1215792
2,9445,3926.0,1216388
2,9450,3897.0,1216979
2,9455,3900.0,1217588
2,9460,3900.0,1218196
2,9465,3919.0,1218805
2,9470,3920.0,1219402
2,9475,3920.0,1220023
2,9480,3919.0,1220702
2,9485,3912.0,1221380
2,9490,3904.0,1222002
2,9495,3898.0,1222585
2,9500,3898.0,1223279
2,9505,3900.0,1223963
2,9510,3923.0,1224641
2,9515,3905.0,1225218
2,9520,3894.0,1225923
2,9525,3904.0,1226520
2,9530,3900.0,1227106
2,9535,3883.0,1227854
2,9540,3940.0,1228451
2,9545,3940.0,1229061
2,9550,3946.0,1229579
2,9555,3945.0,1230253
2,9560,3946.0,1230863
2,9565,3943.0,1231554
2,9570,3930.0,1232133
2,9575,3907.0,1232760
2,9580,3908.0,1233370
2,9585,3922.0,1233971
2,9590,3928.0,1234554
2,9595,3922.0,1235255
2,9600,3920.0,1235861
2,9605,3923.0,1236525
2,9610,3917.0,1237394
2,9615,3935.0,1238011
2,9620,3953.0,1238710
2,9625,3952.0,1239311
2,9630,3939.0,1239862
2,9635,3956.0,1240549
2,9640,3954.0,1241143
2,9645,3953.0,1241751
2,9650,3977.0,1242360
2,9655,3978.0,1242965
2,9660,3979.0,1243567
2,9665,3968.0,1244251
2,9670,3980.0,1244865
2,9675,4006.0,1245545
2,9680,4007.0,1246157
2,9685,4006.0,1246815
2,9690,4007.0,1247429
2,9695,4003.0,1248044
2,9700,4004.0,1248722
2,9705,4005.0,1249322
2,9710,4018.0,1249926
2,9715,4016.0,1250526
2,9720,4018.0,1251129
2,9725,4019.0,1251729
2,9730,4035.0,1252322
2,9735,4033.0,1252921
2,9740,4027.0,1253598
2,9745,4023.0,1254277
2,9750,4026.0,1254875
2,9755,4011.0,1255546
2,9760,4009.0,1256154
2,9765,3992.0,1256753
2,9770,3993.0,1257368
2,9775,3969.0,1258019
2,9780,3962.0,1258776
2,9785,3933.0,1259463
2,9790,3933.0,1260140
2,9795,3945.0,1260733
2,9800,3947.0,1261423
2,9805,3897.0,1261899
2,9810,3875.0,1262436
2,9815,3877.0,1263039
2,9820,3873.0,1263646
2,9825,3871.0,1264248
2,9830,3862.0,1264827
2,9835,3845.0,1265381
2,9840,3856.0,1265983
2,9845,3860.0,1266571
2,9850,3859.0,1267167
2,9855,3870.0,1267777
2,9860,3828.0,1268444
2,9865,3831.0,1268957
2,9870,3830.0,1269565
2,9875,3861.0,1270328
2,9880,3866.0,1270932
2,9885,3893.0,1271523
2,9890,3893.0,1272123
2,9895,3895.0,1272733
2,9900,3877.0,1273498
2,9905,3898.0,1274132
2,9910,3921.0,1274737
2,9915,3916.0,1275329
2,9920,3905.0,1276015
2,9925,3891.0,1276579
2,9930,3896.0,1277322
2,9935,3917.0,1277921
2,9940,3899.0,1278521
2,9945,3900.0,1279131
2,9950,3900.0,1279765
2,9955,3897.0,1280441
2,9960,3903.0,1280947
2,9965,3929.0,1281546
2,9970,3918.0,1282185
2,9975,3918.0,1282788
2,9980,3919.0,1283397
2,9985,3918.0,1283999
2,9990,3906.0,1284573
2,9995,3880.0,1285082
2,10000,3891.0,1285753
2,10005,3918.0,1286357
2,10010,3916.0,1287035
2,10015,3920.0,1287644
2,10020,3929.0,1288275
2,10025,3938.0,1289028
2,10030,3935.0,1289642
2,10035,3906.0,1290336
2,10040,3897.0,1290848
2,10045,3880.0,1291395
2,10050,3873.0,1292015
2,10055,3880.0,1292619
2,10060,3909.0,1293304
2,10065,3912.0,1293915
2,10070,3923.0,1294513
2,10075,3922.0,1295270
2,10080,3923.0,1295866
2,10085,3927.0,1296466
2,10090,3937.0,1297061
2,10095,3963.0,1297740
2,10100,3972.0,1298337
2,10105,3963.0,1299012
2,10110,3951.0,1299686
2,10115,3947.0,1300337
2,10120,3947.0,1300968
2,10125,3952.0,1301569
2,10130,3932.0,1302191
2,10135,3960.0,1302796
2,10140,3984.0,1303409
2,10145,4001.0,1304013
2,10150,4009.0,1304618
2,10155,3987.0,1305377
2,10160,3996.0,1305984
2,10165,3995.0,1306671
2,10170,3994.0,1307273
2,10175,3994.0,1307860
2,10180,3994.0,1308458
2,10185,3992.0,1309092
2,10190,3995.0,1309757
2,10195,3994.0,1310355
2,10200,3992.0,1310965
2,10205,4001.0,1311567
2,10210,4015.0,1312168
2,10215,4019.0,1312849
2,10220,3998.0,1313380
2,10225,3964.0,1313867
2,10230,3954.0,1314604
2,10235,3955.0,1315279
2,10240,3956.0,1315873
2,10245,3947.0,1316558
2,10250,3944.0,1317231
2,10255,3964.0,1317915
2,10260,3936.0,1318432
2,10265,3935.0,1319028
2,10270,3937.0,1319640
2,10275,3942.0,1320252
2,10280,3940.0,1320923
2,10285,3940.0,1321513
2,10290,3940.0,1322111
2,10295,3931.0,1322786
2,10300,3932.0,1323392
2,10305,3922.0,1324075
2,10310,3908.0,1324747
2,10315,3909.0,1325346
2,10320,3936.0,1325951
2,10325,3971.0,1326555
2,10330,3994.0,1327241
2,10335,3978.0,1327919
2,10340,3979.0,1328514
2,10345,3957.0,1329020
2,10350,3958.0,1329627
2,10355,3944.0,1330305
2,10360,3952.0,1330965
2,10365,3952.0,1331560
2,10370,3951.0,1332166
2,10375,3940.0,1332929
2,10380,3929.0,1333608
2,10385,3923.0,1334365
2,10390,3920.0,1334951
2,10395,3929.0,1335577
2,10400,3929.0,1336176
2,10405,3924.0,1336723
2,10410,3937.0,1337327
2,10415,3937.0,1337928
2,10420,3927.0,1338541
2,10425,3926.0,1339220
2,10430,3932.0,1339857
2,10435,3934.0,1340541
2,10440,3924.0,1341227
2,10445,3939.0,1341880
2,10450,3941.0,1342488
2,10455,3956.0,1343095
2,10460,3974.0,1343772
2,10465,3948.0,1344609
2,10470,3931.0,1345171
2,10475,3933.0,1345740
2,10480,3935.0,1346423
2,10485,3943.0,1347032
2,10490,3945.0,1347640
2,10495,3947.0,1348269
2,10500,3948.0,1348868
2,10505,3964.0,1349470
2,10510,3964.0,1350156
2,10515,3964.0,1350753
2,10520,3968.0,1351424
2,10525,3944.0,1352024
2,10530,3952.0,1352631
2,10535,3949.0,1353183
2,10540,3959.0,1353772
2,10545,3968.0,1354531
2,10550,3941.0,1355162
2,10555,3942.0,1355773
2,10560,3943.0,1356387
2,10565,3961.0,1356955
2,10570,3976.0,1357549
2,10575,3973.0,1358235
2,10580,3978.0,1358955
2,10585,3976.0,1359661
2,10590,3976.0,1360342
2,10595,3977.0,1360939
2,10600,3977.0,1361542
2,10605,3976.0,1362145
2,10610,3976.0,1362771
2,10615,3976.0,1363375
2,10620,3952.0,1364009
2,10625,3978.0,1364611
2,10630,3977.0,1365213
2,10635,3992.0,1365819
2,10640,3983.0,1366525
2,10645,3989.0,1367128
2,10650,4016.0,1367726
2,10655,4016.0,1368328
2,10660,4001.0,1368982
2,10665,4002.0,1369814
2,10670,3979.0,1370332
2,10675,3962.0,1371089
2,10680,3966.0,1371709
2,10685,3966.0,1372391
2,10690,3966.0,1373059
2,10695,3966.0,1373661
2,10700,3962.0,1374284
2,10705,3960.0,1374960
2,10710,3942.0,1375680
2,10715,3942.0,1376281
2,10720,3971.0,1376902
2,10725,3967.0,1377587
2,10730,3958.0,1378223
2,10735,3960.0,1378827
2,10740,3953.0,1379380
2,10745,3916.0,1379987
2,10750,3915.0,1380601
2,10755,3910.0,1381286
2,10760,3926.0,1381882
2,10765,3932.0,1382476
2,10770,3946.0,1383132
2,10775,3959.0,1383891
2,10780,3947.0,1384566
2,10785,3933.0,1385196
2,10790,3921.0,1385874
2,10795,3920.0,1386467
2,10800,3905.0,1387227
2,10805,3907.0,1387836
2,10810,3915.0,1388417
2,10815,3899.0,1389122
2,10820,3899.0,1389734
2,10825,3902.0,1390348
2,10830,3913.0,1390964
2,10835,3903.0,1391575
2,10840,3920.0,1392172
2,10845,3948.0,1392766
2,10850,3947.0,1393385
2,10855,3949.0,1394074
2,10860,3948.0,1394671
2,10865,3951.0,1395273
2,10870,3962.0,1395866
2,10875,3978.0,1396470
2,10880,3992.0,1397078
2,10885,3994.0,1397667
2,10890,4006.0,1398314
2,10895,3993.0,1398989
2,10900,4008.0,1399590
2,10905,3997.0,1400211
2,10910,3995.0,1400892
2,10915,3996.0,1401576
2,10920,3991.0,1402261
2,10925,3990.0,1402861
2,10930,3990.0,1403460
2,10935,3986.0,1404140
2,10940,3960.0,1404750
2,10945,3956.0,1405332
2,10950,3953.0,1405926
2,10955,3956.0,1406526
2,10960,3954.0,1407206
2,10965,3930.0,1407873
2,10970,3929.0,1408484
2,10975,3899.0,1409080
2,10980,3893.0,1409761
2,10985,3863.0,1410530
2,10990,3864.0,1411141
2,10995,3877.0,1411758
2,11000,3880.0,1412366
2,11005,3885.0,1413042
2,11010,3897.0,1413637
2,11015,3912.0,1414239
2,11020,3911.0,1414829
2,11025,3885.0,1415589
2,11030,3883.0,1416186
2,11035,3888.0,1416868
2,11040,3914.0,1417475
2,11045,3925.0,1418091
2,11050,3929.0,1418686
2,11055,3927.0,1419294
2,11060,3905.0,1419941
2,11065,3928.0,1420541
2,11070,3929.0,1421152
2,11075,3959.0,1421751
2,11080,3964.0,1422345
2,11085,4008.0,1422953
2,11090,4000.0,1423646
2,11095,3984.0,1424406
2,11100,3985.0,1425002
2,11105,3992.0,1425600
2,11110,3970.0,1426129
2,11115,3958.0,1426812
2,11120,3962.0,1427430
2,11125,3990.0,1428028
2,11130,3992.0,1428625
2,11135,3995.0,1429387
2,11140,3994.0,1429991
2,11145,3995.0,1430605
2,11150,3994.0,1431285
2,11155,3992.0,1431990
2,11160,3974.0,1432462
2,11165,3975.0,1433070
2,11170,3968.0,1433678
2,11175,3944.0,1434365
2,11180,3937.0,1435042
2,11185,3937.0,1435636
2,11190,3916.0,1436149
2,11195,3916.0,1436820
2,11200,3905.0,1437577
2,11205,3901.0,1438187
2,11210,3910.0,1438884
2,11215,3906.0,1439604
2,11220,3909.0,1440206
2,11225,3878.0,1440801
2,11230,3866.0,1441477
2,11235,3869.0,1442231
2,11240,3869.0,1442829
2,11245,3869.0,1443509
2,11250,3871.0,1444115
2,11255,3874.0,1444716
2,11260,3916.0,1445306
2,11265,3914.0,1445988
2,11270,3915.0,1446679
2,11275,3935.0,1447412
2,11280,3943.0,1448025
2,11285,3941.0,1448702
2,11290,3969.0,1449303
2,11295,3985.0,1449921
2,11300,3981.0,1450596
2,11305,3984.0,1451273
2,11310,3995.0,1451876
2,11315,3998.0,1452613
2,11320,3996.0,1453216
2,11325,4026.0,1453837
2,11330,4035.0,1454513
2,11335,4022.0,1455063
2,11340,4021.0,1455660
2,11345,4018.0,1456329
2,11350,4012.0,1457083
2,11355,4002.0,1457767
2,11360,4003.0,1458376
2,11365,4000.0,1458974
2,11370,4003.0,1459566
2,11375,3958.0,1460074
2,11380,3957.0,1460674
2,11385,3958.0,1461266
2,11390,3960.0,1461870
2,11395,3940.0,1462623
2,11400,3953.0,1463228
2,11405,3944.0,1463872
2,11410,3937.0,1464633
2,11415,3928.0,1465382
2,11420,3926.0,1466075
2,11425,3915.0,1466749
2,11430,3909.0,1467434
2,11435,3908.0,1467974
2,11440,3909.0,1468568
2,11445,3912.0,1469282
2,11450,3896.0,1469809
2,11455,3880.0,1470420
2,11460,3868.0,1471164
2,11465,3863.0,1471886
2,11470,3864.0,1472486
2,11475,3903.0,1473126
2,11480,3901.0,1473772
2,11485,3901.0,1474377
2,11490,3900.0,1474971
2,11495,3915.0,1475556
2,11500,3915.0,1476206
2,11505,3922.0,1476806
2,11510,3930.0,1477401
2,11515,3951.0,1477999
2,11520,3954.0,1478618
2,11525,3965.0,1479220
2,11530,3970.0,1479893
2,11535,3984.0,1480493
2,11540,3972.0,1481059
2,11545,3972.0,1481662
2,11550,3994.0,1482263
2,11555,4019.0,1482944
2,11560,4025.0,1483523
2,11565,4033.0,1484119
2,11570,4015.0,1484827
2,11575,4024.0,1485433
2,11580,4027.0,1486023
2,11585,4025.0,1486642
2,11590,4016.0,1487330
2,11595,4022.0,1487933
2,11600,4022.0,1488541
2,11605,4013.0,1489219
2,11610,4015.0,1489856
2,11615,4014.0,1490449
2,11620,4015.0,1491042
2,11625,4014.0,1491643
2,11630,4017.0,1492248
2,11635,4020.0,1492843
2,11640,4032.0,1493444
2,11645,3998.0,1494047
2,11650,3997.0,1494653
2,11655,3997.0,1495326
2,11660,4001.0,1495931
2,11665,3983.0,1496688
2,11670,3998.0,1497283
2,11675,3989.0,1497965
2,11680,3986.0,1498628
2,11685,3985.0,1499318
2,11690,3994.0,1499956
