% time spent exploring,episodes,mean 100 episode reward,steps
99,5,250.0,592
99,10,366.7,1332
99,15,435.7,2193
99,20,468.4,2708
99,25,495.8,3572
99,30,458.6,4161
99,35,452.9,4903
99,40,459.0,5494
99,45,440.9,5994
99,50,432.7,6551
99,55,433.3,7161
99,60,449.2,7948
99,65,448.4,8416
99,70,433.3,9068
99,75,452.7,9733
99,80,446.8,10143
98,85,446.4,10799
98,90,453.9,11521
98,95,453.2,12334
98,100,454.5,13201
98,105,463.0,13802
98,110,465.0,14453
98,115,459.0,15134
98,120,454.0,15685
98,125,442.0,16284
98,130,439.0,16824
98,135,455.0,17506
98,140,462.0,18321
98,145,473.0,19138
98,150,484.0,20034
97,155,493.0,20873
97,160,491.0,21742
97,165,492.0,22170
97,170,513.0,22871
97,175,505.0,23698
97,180,527.0,24590
97,185,526.0,25214
97,190,536.0,26070
97,195,537.0,26725
97,200,533.0,27392
97,205,531.0,27837
97,210,530.0,28693
97,215,534.0,29415
97,220,554.0,30170
96,225,557.0,31010
96,230,587.0,31742
96,235,584.0,32363
96,240,579.0,32992
96,245,573.0,33618
96,250,571.0,34358
96,255,568.0,35157
96,260,566.0,35939
96,265,567.0,36571
96,270,576.0,37313
96,275,576.0,38055
96,280,569.0,38846
96,285,574.0,39388
96,290,564.0,40132
96,295,565.0,40480
95,300,575.0,41227
95,305,577.0,41824
95,310,585.0,42569
95,315,588.0,43269
95,320,581.0,44138
95,325,595.0,44906
95,330,594.0,45471
95,335,585.0,46087
95,340,582.0,46754
95,345,582.0,47390
95,350,588.0,48115
95,355,598.0,48837
95,360,598.0,49457
95,365,596.0,49931
95,370,585.0,50629
94,375,582.0,51168
94,380,566.0,51824
94,385,565.0,52513
94,390,584.0,53444
94,395,591.0,54124
94,400,596.0,54727
94,405,609.0,55350
94,410,606.0,55789
94,415,613.0,56605
94,420,596.0,57099
94,425,580.0,57565
94,430,568.0,58082
94,435,590.0,58737
94,440,592.0,59059
94,445,590.0,59730
94,450,596.0,60542
94,455,585.0,61174
93,460,583.0,61791
93,465,600.0,62602
93,470,603.0,63253
93,475,618.0,64036
93,480,626.0,64601
93,485,641.0,65174
93,490,631.0,65813
93,495,629.0,66382
93,500,621.0,66997
93,505,623.0,67653
93,510,613.0,68148
93,515,597.0,68837
93,520,596.0,69461
93,525,606.0,69922
93,530,611.0,70464
93,535,594.0,70856
93,540,604.0,71375
92,545,614.0,71988
92,550,601.0,72421
92,555,603.0,72946
92,560,615.0,73444
92,565,600.0,73841
92,570,600.0,74790
92,575,588.0,75316
92,580,621.0,76110
92,585,630.0,76713
92,590,617.0,77393
92,595,620.0,77912
92,600,633.0,78521
92,605,623.0,79133
92,610,643.0,79833
92,615,665.0,80646
92,620,681.0,81185
91,625,693.0,81843
91,630,696.0,82543
91,635,700.0,83228
91,640,701.0,83976
91,645,700.0,84667
91,650,693.0,85372
91,655,702.0,86084
91,660,695.0,86667
91,665,696.0,87264
91,670,712.0,88004
91,675,728.0,88590
91,680,697.0,89025
91,685,697.0,89894
91,690,697.0,90397
91,695,694.0,90828
91,700,691.0,91630
90,705,703.0,92245
90,710,693.0,92861
90,715,697.0,93569
90,720,706.0,94138
90,725,701.0,94727
90,730,682.0,94969
90,735,678.0,95717
90,740,672.0,96251
90,745,694.0,96925
90,750,718.0,97636
90,755,711.0,98189
90,760,723.0,99018
90,765,732.0,99636
90,770,725.0,100265
90,775,703.0,100587
90,780,701.0,101179
90,785,689.0,101863
89,790,719.0,102682
89,795,740.0,103482
89,800,732.0,104012
89,805,715.0,104382
89,810,716.0,105107
89,815,713.0,105723
89,820,715.0,106442
89,825,708.0,107025
89,830,715.0,107449
89,835,719.0,107948
89,840,735.0,108768
89,845,714.0,109295
89,850,696.0,109615
89,855,694.0,109917
89,860,699.0,110578
89,865,704.0,111137
89,870,696.0,111679
89,875,702.0,112102
88,880,708.0,112609
88,885,709.0,113141
88,890,684.0,113585
88,895,678.0,114398
88,900,717.0,115390
88,905,729.0,115939
88,910,740.0,116609
88,915,726.0,117168
88,920,723.0,117880
88,925,730.0,118460
88,930,737.0,119115
88,935,741.0,119644
88,940,736.0,120178
88,945,750.0,120946
88,950,776.0,121719
88,955,784.0,122189
87,960,783.0,122827
87,965,771.0,123428
87,970,778.0,124186
87,975,779.0,124630
87,980,786.0,125102
87,985,770.0,125376
87,990,765.0,125936
87,995,740.0,126531
87,1000,721.0,127128
87,1005,724.0,127721
87,1010,720.0,128424
87,1015,728.0,129052
87,1020,712.0,129643
87,1025,714.0,130388
87,1030,721.0,130945
87,1035,731.0,131461
87,1040,732.0,131946
87,1045,724.0,132369
86,1050,716.0,132915
86,1055,708.0,133299
86,1060,697.0,133923
86,1065,722.0,134692
86,1070,722.0,135192
86,1075,728.0,135835
86,1080,747.0,136561
86,1085,775.0,137198
86,1090,772.0,137570
86,1095,778.0,137962
86,1100,765.0,138427
86,1105,772.0,139170
86,1110,770.0,139594
86,1115,778.0,140321
86,1120,789.0,140894
86,1125,790.0,141575
86,1130,800.0,142333
86,1135,797.0,142854
85,1140,796.0,143266
85,1145,807.0,143783
85,1150,808.0,144385
85,1155,832.0,145052
85,1160,853.0,145851
85,1165,829.0,146444
85,1170,834.0,147048
85,1175,840.0,147687
85,1180,823.0,148249
85,1185,813.0,148800
85,1190,824.0,149214
85,1195,839.0,149630
85,1200,846.0,150181
85,1205,824.0,150447
85,1210,837.0,151155
85,1215,816.0,151629
85,1220,797.0,151855
85,1225,793.0,152444
85,1230,773.0,153001
84,1235,759.0,153461
84,1240,741.0,153787
84,1245,736.0,154368
84,1250,720.0,154837
84,1255,712.0,155598
84,1260,687.0,156203
84,1265,689.0,156571
84,1270,674.0,157040
84,1275,681.0,157781
84,1280,676.0,158227
84,1285,674.0,158753
84,1290,687.0,159333
84,1295,694.0,160111
84,1300,695.0,160827
84,1305,720.0,161370
84,1310,708.0,161879
84,1315,739.0,162541
84,1320,756.0,163042
83,1325,755.0,163548
83,1330,770.0,164215
83,1335,788.0,164737
83,1340,825.0,165577
83,1345,819.0,166093
83,1350,855.0,166865
83,1355,835.0,167364
83,1360,866.0,167987
83,1365,874.0,168543
83,1370,885.0,169223
83,1375,887.0,169862
83,1380,887.0,170391
83,1385,891.0,170845
83,1390,883.0,171365
83,1395,884.0,171991
83,1400,890.0,172686
83,1405,906.0,173305
82,1410,906.0,173711
82,1415,893.0,174226
82,1420,900.0,174702
82,1425,919.0,175289
82,1430,912.0,175718
82,1435,879.0,175996
82,1440,853.0,176584
82,1445,849.0,177131
82,1450,820.0,177485
82,1455,836.0,178062
82,1460,793.0,178428
82,1465,809.0,179155
82,1470,819.0,179858
82,1475,802.0,180310
82,1480,789.0,180592
82,1485,770.0,180941
82,1490,790.0,181767
82,1495,785.0,182344
82,1500,777.0,182924
82,1505,768.0,183550
81,1510,790.0,184327
81,1515,797.0,184933
81,1520,811.0,185562
81,1525,788.0,186023
81,1530,795.0,186608
81,1535,833.0,187308
81,1540,851.0,187953
81,1545,871.0,188607
81,1550,892.0,189164
81,1555,903.0,190100
81,1560,921.0,190424
81,1565,911.0,190942
81,1570,896.0,191500
81,1575,901.0,192033
81,1580,944.0,192775
81,1585,976.0,193328
80,1590,974.0,193991
80,1595,958.0,194378
80,1600,953.0,194888
80,1605,960.0,195589
80,1610,961.0,196366
80,1615,944.0,196882
80,1620,936.0,197492
80,1625,946.0,197869
80,1630,956.0,198380
80,1635,963.0,199185
80,1640,966.0,199880
80,1645,967.0,200472
80,1650,954.0,200874
80,1655,951.0,201391
80,1660,978.0,202173
80,1665,970.0,202559
80,1670,972.0,203108
80,1675,976.0,203613
80,1680,954.0,204081
79,1685,934.0,204500
79,1690,930.0,205209
79,1695,968.0,205964
79,1700,993.0,206767
79,1705,967.0,207348
79,1710,955.0,207967
79,1715,965.0,208615
79,1720,959.0,209103
79,1725,970.0,209594
79,1730,984.0,210302
79,1735,987.0,210969
79,1740,950.0,211149
79,1745,955.0,211854
79,1750,973.0,212557
79,1755,979.0,213166
79,1760,968.0,213771
78,1765,988.0,214360
78,1770,1010.0,215322
78,1775,1018.0,215874
78,1780,1047.0,216538
78,1785,1068.0,217189
78,1790,1068.0,217856
78,1795,1064.0,218619
78,1800,1057.0,219277
78,1805,1062.0,219696
78,1810,1051.0,220042
78,1815,1069.0,220755
78,1820,1081.0,221400
78,1825,1075.0,221883
78,1830,1052.0,222395
78,1835,1066.0,223321
78,1840,1094.0,223878
78,1845,1085.0,224380
77,1850,1071.0,224998
77,1855,1071.0,225618
77,1860,1069.0,226361
77,1865,1065.0,226773
77,1870,1060.0,227570
77,1875,1071.0,228397
77,1880,1023.0,228737
77,1885,1006.0,229072
77,1890,999.0,229466
77,1895,989.0,230027
77,1900,990.0,230579
77,1905,1002.0,231239
77,1910,995.0,231497
77,1915,980.0,232061
77,1920,972.0,232618
77,1925,1009.0,233532
77,1930,1008.0,233881
77,1935,984.0,234416
76,1940,1005.0,235170
76,1945,1001.0,235707
76,1950,994.0,236120
76,1955,985.0,236552
76,1960,975.0,237039
76,1965,967.0,237652
76,1970,981.0,238456
76,1975,980.0,239115
76,1980,1010.0,239738
76,1985,1048.0,240540
76,1990,1059.0,241194
76,1995,1044.0,241596
76,2000,1039.0,242192
76,2005,1030.0,242732
76,2010,1060.0,243303
76,2015,1061.0,243766
76,2020,1084.0,244470
75,2025,1048.0,244985
75,2030,1045.0,245360
75,2035,1054.0,246041
75,2040,1027.0,246522
75,2045,1069.0,247426
75,2050,1089.0,247955
75,2055,1095.0,248499
75,2060,1099.0,249063
75,2065,1119.0,249756
75,2070,1087.0,250163
75,2075,1113.0,251094
75,2080,1132.0,251807
75,2085,1099.0,252237
75,2090,1088.0,252723
75,2095,1099.0,253369
75,2100,1107.0,254100
75,2105,1112.0,254666
74,2110,1114.0,255219
74,2115,1104.0,255742
74,2120,1074.0,256261
74,2125,1084.0,256858
74,2130,1118.0,257672
74,2135,1126.0,258412
74,2140,1154.0,259015
74,2145,1118.0,259455
74,2150,1106.0,259976
74,2155,1117.0,260477
74,2160,1145.0,261212
74,2165,1134.0,261737
74,2170,1157.0,262363
74,2175,1123.0,262880
74,2180,1088.0,263349
74,2185,1106.0,264068
74,2190,1106.0,264507
74,2195,1119.0,265121
73,2200,1121.0,265873
73,2205,1143.0,266537
73,2210,1140.0,267121
73,2215,1149.0,267602
73,2220,1176.0,268172
73,2225,1181.0,268822
73,2230,1162.0,269369
73,2235,1136.0,269812
73,2240,1139.0,270532
73,2245,1150.0,270974
73,2250,1149.0,271519
73,2255,1137.0,272083
73,2260,1131.0,272745
73,2265,1128.0,273339
73,2270,1113.0,273768
73,2275,1087.0,273996
73,2280,1120.0,274712
73,2285,1118.0,275343
72,2290,1115.0,275703
72,2295,1102.0,276128
72,2300,1082.0,276565
72,2305,1059.0,277068
72,2310,1049.0,277559
72,2315,1036.0,277937
72,2320,1048.0,278678
72,2325,1062.0,279562
72,2330,1042.0,279884
72,2335,1022.0,280305
72,2340,997.0,280884
72,2345,996.0,281586
72,2350,986.0,281999
72,2355,987.0,282658
72,2360,994.0,283343
72,2365,1017.0,283971
72,2370,1003.0,284274
72,2375,1058.0,285097
72,2380,1020.0,285363
71,2385,1009.0,285794
71,2390,1015.0,286303
71,2395,1023.0,286732
71,2400,1029.0,287164
71,2405,1057.0,287864
71,2410,1045.0,288291
71,2415,1093.0,289078
71,2420,1055.0,289374
71,2425,1035.0,289892
71,2430,1071.0,290478
71,2435,1110.0,291146
71,2440,1124.0,291805
71,2445,1116.0,292232
71,2450,1162.0,292954
71,2455,1181.0,293720
71,2460,1174.0,294433
71,2465,1162.0,295107
71,2470,1192.0,295770
70,2475,1158.0,296233
70,2480,1181.0,296770
70,2485,1203.0,297462
70,2490,1215.0,298101
70,2495,1219.0,298734
70,2500,1223.0,299238
70,2505,1187.0,299565
70,2510,1197.0,299989
70,2515,1188.0,300631
70,2520,1199.0,301096
70,2525,1191.0,301461
70,2530,1182.0,302170
70,2535,1185.0,302762
70,2540,1188.0,303356
70,2545,1197.0,303966
70,2550,1176.0,304577
70,2555,1174.0,305278
70,2560,1182.0,306051
69,2565,1195.0,306689
69,2570,1192.0,307250
69,2575,1217.0,307967
69,2580,1213.0,308605
69,2585,1219.0,309369
69,2590,1211.0,309840
69,2595,1207.0,310340
69,2600,1213.0,310896
69,2605,1211.0,311180
69,2610,1203.0,311607
69,2615,1208.0,312291
69,2620,1246.0,313100
69,2625,1273.0,313740
69,2630,1262.0,314179
69,2635,1249.0,314754
69,2640,1271.0,315537
69,2645,1278.0,316298
68,2650,1283.0,316965
68,2655,1275.0,317625
68,2660,1255.0,318049
68,2665,1264.0,318783
68,2670,1281.0,319540
68,2675,1300.0,320269
68,2680,1315.0,320911
68,2685,1295.0,321338
68,2690,1319.0,322004
68,2695,1339.0,322680
68,2700,1324.0,323077
68,2705,1346.0,323577
68,2710,1344.0,323875
68,2715,1349.0,324688
68,2720,1311.0,325233
68,2725,1284.0,325589
68,2730,1277.0,326028
68,2735,1265.0,326260
67,2740,1247.0,326983
67,2745,1260.0,327697
67,2750,1267.0,328394
67,2755,1254.0,328861
67,2760,1266.0,329568
67,2765,1231.0,329969
67,2770,1211.0,330456
67,2775,1174.0,330917
67,2780,1163.0,331356
67,2785,1168.0,331884
67,2790,1156.0,332462
67,2795,1149.0,333068
67,2800,1169.0,333647
67,2805,1180.0,334229
67,2810,1202.0,334658
67,2815,1157.0,334896
67,2820,1145.0,335221
67,2825,1185.0,336038
67,2830,1223.0,336717
66,2835,1270.0,337486
66,2840,1291.0,338364
66,2845,1277.0,339141
66,2850,1291.0,339826
66,2855,1342.0,340738
66,2860,1321.0,341203
66,2865,1348.0,341875
66,2870,1361.0,342504
66,2875,1367.0,342939
66,2880,1394.0,343613
66,2885,1381.0,344086
66,2890,1393.0,344799
66,2895,1401.0,345475
66,2900,1417.0,346196
66,2905,1391.0,346601
65,2910,1406.0,347277
65,2915,1410.0,347569
65,2920,1434.0,348178
65,2925,1417.0,348718
65,2930,1390.0,349290
65,2935,1367.0,349775
65,2940,1333.0,350162
65,2945,1320.0,350640
65,2950,1290.0,351166
65,2955,1247.0,351667
65,2960,1276.0,352395
65,2965,1279.0,353126
65,2970,1266.0,353508
65,2975,1273.0,354164
65,2980,1267.0,354978
65,2985,1275.0,355409
65,2990,1280.0,356081
65,2995,1292.0,356756
64,3000,1276.0,357268
64,3005,1321.0,358160
64,3010,1313.0,358796
64,3015,1348.0,359474
64,3020,1351.0,360004
64,3025,1358.0,360764
64,3030,1355.0,361235
64,3035,1368.0,361981
64,3040,1402.0,362700
64,3045,1431.0,363387
64,3050,1452.0,364156
64,3055,1474.0,364758
64,3060,1497.0,365753
64,3065,1482.0,366316
64,3070,1478.0,366647
64,3075,1453.0,366981
63,3080,1437.0,367476
63,3085,1460.0,367987
63,3090,1418.0,368229
63,3095,1370.0,368509
63,3100,1371.0,369069
63,3105,1367.0,369814
63,3110,1371.0,370484
63,3115,1384.0,371370
63,3120,1407.0,372258
63,3125,1402.0,372925
63,3130,1414.0,373406
63,3135,1413.0,374107
63,3140,1392.0,374704
63,3145,1388.0,375554
63,3150,1385.0,376159
63,3155,1378.0,376631
63,3160,1340.0,377146
62,3165,1340.0,377838
62,3170,1364.0,378505
62,3175,1417.0,379419
62,3180,1412.0,379811
62,3185,1404.0,380461
62,3190,1433.0,381010
62,3195,1455.0,381409
62,3200,1441.0,381740
62,3205,1445.0,382471
62,3210,1432.0,382916
62,3215,1415.0,383495
62,3220,1375.0,383767
62,3225,1396.0,384659
62,3230,1383.0,385136
62,3235,1394.0,385824
62,3240,1382.0,386342
62,3245,1358.0,386729
62,3250,1397.0,387635
61,3255,1385.0,388044
61,3260,1375.0,388465
61,3265,1371.0,388934
61,3270,1361.0,389422
61,3275,1327.0,389829
61,3280,1325.0,390246
61,3285,1319.0,390733
61,3290,1309.0,391218
61,3295,1299.0,391623
61,3300,1321.0,392314
61,3305,1313.0,392964
61,3310,1334.0,393569
61,3315,1357.0,394435
61,3320,1375.0,395052
61,3325,1328.0,395511
61,3330,1340.0,396024
61,3335,1315.0,396547
61,3340,1339.0,397235
61,3345,1334.0,397571
60,3350,1286.0,398123
60,3355,1298.0,398650
60,3360,1332.0,399487
60,3365,1347.0,400055
60,3370,1349.0,400554
60,3375,1366.0,401250
60,3380,1396.0,401921
60,3385,1396.0,402608
60,3390,1363.0,402786
60,3395,1360.0,403148
60,3400,1359.0,403748
60,3405,1376.0,404442
60,3410,1379.0,405114
60,3415,1373.0,405905
60,3420,1364.0,406312
60,3425,1391.0,407010
60,3430,1424.0,407767
59,3435,1429.0,408370
59,3440,1435.0,409070
59,3445,1453.0,409751
59,3450,1433.0,410140
59,3455,1437.0,410680
59,3460,1416.0,411161
59,3465,1414.0,411753
59,3470,1438.0,412384
59,3475,1434.0,412910
59,3480,1420.0,413494
59,3485,1429.0,414001
59,3490,1479.0,414555
59,3495,1511.0,415243
59,3500,1488.0,415521
59,3505,1493.0,416356
59,3510,1469.0,416833
59,3515,1453.0,417294
59,3520,1469.0,417908
59,3525,1465.0,418314
58,3530,1443.0,418856
58,3535,1426.0,419220
58,3540,1416.0,419826
58,3545,1431.0,420444
58,3550,1464.0,421096
58,3555,1448.0,421541
58,3560,1449.0,422034
58,3565,1441.0,422461
58,3570,1449.0,423228
58,3575,1472.0,424097
58,3580,1497.0,424830
58,3585,1488.0,425316
58,3590,1481.0,425870
58,3595,1462.0,426382
58,3600,1487.0,426943
58,3605,1465.0,427684
58,3610,1489.0,428247
57,3615,1479.0,428765
57,3620,1498.0,429585
57,3625,1507.0,430117
57,3630,1540.0,430833
57,3635,1586.0,431601
57,3640,1601.0,432344
57,3645,1598.0,432979
57,3650,1589.0,433614
57,3655,1624.0,434427
57,3660,1625.0,434884
57,3665,1647.0,435502
57,3670,1639.0,436203
57,3675,1623.0,436923
57,3680,1597.0,437475
57,3685,1605.0,438001
57,3690,1584.0,438438
56,3695,1602.0,439056
56,3700,1611.0,439661
56,3705,1613.0,440293
56,3710,1590.0,440790
56,3715,1599.0,441298
56,3720,1598.0,441954
56,3725,1617.0,442720
56,3730,1572.0,443159
56,3735,1573.0,443815
56,3740,1545.0,444295
56,3745,1537.0,444903
56,3750,1564.0,445554
56,3755,1520.0,445909
56,3760,1552.0,446702
56,3765,1566.0,447562
56,3770,1528.0,448044
56,3775,1536.0,448733
55,3780,1534.0,449119
55,3785,1545.0,449775
55,3790,1561.0,450251
55,3795,1558.0,450843
55,3800,1560.0,451409
55,3805,1569.0,452194
55,3810,1629.0,453100
55,3815,1648.0,453755
55,3820,1655.0,454480
55,3825,1652.0,455138
55,3830,1688.0,455864
55,3835,1676.0,456464
55,3840,1689.0,456985
55,3845,1717.0,457696
55,3850,1724.0,458611
54,3855,1750.0,459195
54,3860,1725.0,459666
54,3865,1715.0,460409
54,3870,1726.0,460938
54,3875,1730.0,461735
54,3880,1737.0,462208
54,3885,1736.0,462870
54,3890,1756.0,463585
54,3895,1729.0,464008
54,3900,1716.0,464568
54,3905,1742.0,465354
54,3910,1698.0,465985
54,3915,1695.0,466584
54,3920,1665.0,467046
54,3925,1649.0,467623
54,3930,1643.0,468340
54,3935,1656.0,469000
53,3940,1670.0,469730
53,3945,1673.0,470455
53,3950,1676.0,471367
53,3955,1699.0,472021
53,3960,1723.0,472706
53,3965,1719.0,473396
53,3970,1748.0,474042
53,3975,1739.0,474737
53,3980,1770.0,475494
53,3985,1802.0,476283
53,3990,1765.0,476606
53,3995,1793.0,477149
53,4000,1816.0,477803
53,4005,1753.0,478258
53,4010,1783.0,478932
53,4015,1770.0,479510
52,4020,1784.0,480033
52,4025,1786.0,480514
52,4030,1776.0,481054
52,4035,1762.0,481866
52,4040,1780.0,482568
52,4045,1757.0,483106
52,4050,1705.0,483456
52,4055,1706.0,484196
52,4060,1682.0,484688
52,4065,1648.0,484956
52,4070,1668.0,485778
52,4075,1667.0,486475
52,4080,1675.0,487360
52,4085,1628.0,487858
52,4090,1701.0,488812
51,4095,1737.0,489807
51,4100,1703.0,490236
51,4105,1748.0,491025
51,4110,1715.0,491551
51,4115,1745.0,492293
51,4120,1748.0,492863
51,4125,1771.0,493458
51,4130,1758.0,493831
51,4135,1715.0,494150
51,4140,1679.0,494621
51,4145,1716.0,495509
51,4150,1761.0,496154
51,4155,1753.0,496774
51,4160,1759.0,497216
51,4165,1823.0,498070
51,4170,1808.0,498699
51,4175,1792.0,499196
51,4180,1784.0,499894
50,4185,1811.0,500500
50,4190,1749.0,500891
50,4195,1714.0,501485
50,4200,1760.0,502161
50,4205,1759.0,502860
50,4210,1766.0,503360
50,4215,1757.0,504030
50,4220,1761.0,504683
50,4225,1752.0,505291
50,4230,1725.0,505501
50,4235,1766.0,506075
50,4240,1760.0,506512
50,4245,1726.0,507068
50,4250,1693.0,507426
50,4255,1657.0,507757
50,4260,1699.0,508638
50,4265,1689.0,509503
49,4270,1687.0,510325
49,4275,1710.0,510997
49,4280,1673.0,511426
49,4285,1647.0,511884
49,4290,1699.0,512711
49,4295,1712.0,513405
49,4300,1698.0,514066
49,4305,1706.0,514875
49,4310,1711.0,515436
49,4315,1708.0,516041
49,4320,1676.0,516372
49,4325,1661.0,517001
49,4330,1688.0,517505
49,4335,1696.0,518154
49,4340,1740.0,518986
49,4345,1767.0,519797
48,4350,1805.0,520434
48,4355,1855.0,521272
48,4360,1804.0,521620
48,4365,1772.0,522115
48,4370,1750.0,522633
48,4375,1743.0,523300
48,4380,1779.0,524031
48,4385,1793.0,524529
48,4390,1776.0,525038
48,4395,1780.0,525635
48,4400,1798.0,526366
48,4405,1776.0,527092
48,4410,1782.0,527755
48,4415,1784.0,528306
48,4420,1858.0,529168
48,4425,1867.0,529877
48,4430,1891.0,530530
47,4435,1860.0,531006
47,4440,1838.0,531602
47,4445,1814.0,532254
47,4450,1824.0,533031
47,4455,1824.0,533729
47,4460,1856.0,534477
47,4465,1867.0,535065
47,4470,1888.0,535889
47,4475,1875.0,536357
47,4480,1854.0,537028
47,4485,1856.0,537622
47,4490,1855.0,538248
47,4495,1858.0,539020
47,4500,1848.0,539574
47,4505,1844.0,540150
47,4510,1837.0,540609
46,4515,1851.0,541259
46,4520,1828.0,542008
46,4525,1851.0,542742
46,4530,1875.0,543513
46,4535,1874.0,543890
46,4540,1887.0,544530
46,4545,1923.0,545406
46,4550,1898.0,545921
46,4555,1893.0,546543
46,4560,1889.0,547214
46,4565,1876.0,547663
46,4570,1823.0,547865
46,4575,1874.0,548714
46,4580,1862.0,549191
46,4585,1895.0,550023
46,4590,1880.0,550468
45,4595,1885.0,551102
45,4600,1857.0,551539
45,4605,1899.0,552393
45,4610,1916.0,552980
45,4615,1913.0,553753
45,4620,1882.0,554123
45,4625,1879.0,554868
45,4630,1887.0,555675
45,4635,1907.0,556225
45,4640,1905.0,556794
45,4645,1879.0,557337
45,4650,1840.0,557662
45,4655,1850.0,558462
45,4660,1868.0,559302
45,4665,1902.0,560099
45,4670,1970.0,560872
44,4675,1966.0,561584
44,4680,1991.0,562324
44,4685,1995.0,562957
44,4690,2015.0,563626
44,4695,2028.0,564332
44,4700,2026.0,564804
44,4705,2004.0,565440
44,4710,1990.0,565887
44,4715,2006.0,566693
44,4720,2041.0,567442
44,4725,2033.0,568080
44,4730,1991.0,568527
44,4735,2020.0,569312
44,4740,2025.0,570091
44,4745,2032.0,570835
44,4750,2056.0,571263
43,4755,2040.0,571870
43,4760,2015.0,572515
43,4765,2002.0,573266
43,4770,1982.0,573913
43,4775,1976.0,574632
43,4780,1943.0,575015
43,4785,1927.0,575838
43,4790,1936.0,576543
43,4795,1936.0,577346
43,4800,1983.0,578097
43,4805,2017.0,579092
43,4810,2034.0,579849
43,4815,2005.0,580488
43,4820,1969.0,580962
43,4825,1946.0,581472
42,4830,1937.0,581944
42,4835,1918.0,582447
42,4840,1918.0,583078
42,4845,1916.0,583736
42,4850,1950.0,584399
42,4855,1956.0,585034
42,4860,1966.0,585538
42,4865,1990.0,586289
42,4870,2005.0,587101
42,4875,1984.0,587636
42,4880,2000.0,588267
42,4885,1995.0,588906
42,4890,1981.0,589538
42,4895,1966.0,590280
42,4900,1979.0,591017
42,4905,1954.0,591719
41,4910,1962.0,592418
41,4915,1997.0,593328
41,4920,1993.0,593783
41,4925,1992.0,594253
41,4930,2019.0,594898
41,4935,2048.0,595713
41,4940,2074.0,596585
41,4945,2093.0,597414
41,4950,2086.0,598051
41,4955,2090.0,598696
41,4960,2116.0,599467
41,4965,2087.0,599843
41,4970,2059.0,600490
41,4975,2084.0,601336
41,4980,2099.0,602034
40,4985,2122.0,602846
40,4990,2146.0,603577
40,4995,2159.0,604401
40,5000,2164.0,605335
40,5005,2121.0,605635
40,5010,2120.0,606335
40,5015,2069.0,606774
40,5020,2080.0,607233
40,5025,2094.0,607685
40,5030,2122.0,608546
40,5035,2037.0,608728
40,5040,2034.0,609602
40,5045,2043.0,610453
40,5050,2012.0,610807
40,5055,1999.0,611357
40,5060,1993.0,612215
39,5065,2012.0,612781
39,5070,1986.0,613041
39,5075,1957.0,613536
39,5080,1997.0,614434
39,5085,1974.0,615174
39,5090,1992.0,615917
39,5095,1981.0,616587
39,5100,1923.0,617026
39,5105,1978.0,617717
39,5110,1983.0,618494
39,5115,2016.0,619093
39,5120,2024.0,619656
39,5125,2025.0,620206
39,5130,1978.0,620746
39,5135,2032.0,621299
39,5140,2057.0,622206
38,5145,2043.0,622855
38,5150,2077.0,623489
38,5155,2082.0,624168
38,5160,2099.0,625094
38,5165,2129.0,626089
38,5170,2184.0,626614
38,5175,2155.0,626927
38,5180,2091.0,627451
38,5185,2093.0,628120
38,5190,2054.0,628688
38,5195,2075.0,629554
38,5200,2087.0,630214
38,5205,2082.0,630969
38,5210,2071.0,631631
38,5215,2058.0,632131
37,5220,2088.0,632822
37,5225,2061.0,633196
37,5230,2075.0,633846
37,5235,2088.0,634477
37,5240,2064.0,635160
37,5245,2065.0,635830
37,5250,2031.0,636199
37,5255,2070.0,637010
37,5260,2031.0,637681
37,5265,1993.0,638213
37,5270,1984.0,638888
37,5275,2043.0,639572
37,5280,2070.0,640161
37,5285,2053.0,640725
37,5290,2104.0,641591
37,5295,2127.0,642371
36,5300,2162.0,643227
36,5305,2135.0,643811
36,5310,2124.0,644463
36,5315,2131.0,645100
36,5320,2106.0,645577
36,5325,2154.0,646267
36,5330,2151.0,646868
36,5335,2142.0,647500
36,5340,2159.0,648391
36,5345,2117.0,648810
36,5350,2168.0,649536
36,5355,2143.0,650081
36,5360,2183.0,650838
36,5365,2227.0,651640
36,5370,2270.0,652491
35,5375,2268.0,653173
35,5380,2253.0,653804
35,5385,2298.0,654692
35,5390,2255.0,655359
35,5395,2249.0,656114
35,5400,2261.0,656875
35,5405,2314.0,657785
35,5410,2332.0,658494
35,5415,2334.0,659072
35,5420,2318.0,659488
35,5425,2342.0,660350
35,5430,2387.0,661182
35,5435,2400.0,661721
35,5440,2363.0,662469
35,5445,2420.0,663125
34,5450,2426.0,663897
34,5455,2419.0,664515
34,5460,2371.0,665109
34,5465,2375.0,666020
34,5470,2297.0,666345
34,5475,2279.0,666854
34,5480,2295.0,667341
34,5485,2284.0,668174
34,5490,2304.0,668872
34,5495,2269.0,669489
34,5500,2236.0,670129
34,5505,2173.0,670490
34,5510,2167.0,671155
34,5515,2198.0,671896
34,5520,2232.0,672442
34,5525,2206.0,673197
33,5530,2140.0,673645
33,5535,2129.0,674124
33,5540,2151.0,674878
33,5545,2125.0,675575
33,5550,2112.0,676410
33,5555,2134.0,677065
33,5560,2144.0,677753
33,5565,2123.0,678558
33,5570,2217.0,679455
33,5575,2263.0,680304
33,5580,2285.0,681060
33,5585,2279.0,681814
33,5590,2292.0,682646
33,5595,2303.0,683409
32,5600,2272.0,683814
32,5605,2286.0,684376
32,5610,2288.0,685053
32,5615,2279.0,685839
32,5620,2264.0,686368
32,5625,2265.0,687082
32,5630,2327.0,687886
32,5635,2353.0,688479
32,5640,2316.0,688936
32,5645,2341.0,689598
32,5650,2352.0,690324
32,5655,2281.0,690538
32,5660,2287.0,691061
32,5665,2258.0,691554
32,5670,2195.0,692057
32,5675,2152.0,692639
32,5680,2131.0,693198
32,5685,2118.0,693759
31,5690,2115.0,694514
31,5695,2143.0,695241
31,5700,2176.0,695696
31,5705,2189.0,696429
31,5710,2196.0,696936
31,5715,2188.0,697608
31,5720,2184.0,698154
31,5725,2190.0,698828
31,5730,2157.0,699322
31,5735,2161.0,700008
31,5740,2191.0,700720
31,5745,2195.0,701488
31,5750,2184.0,702136
31,5755,2264.0,703094
31,5760,2295.0,703797
30,5765,2334.0,704700
30,5770,2354.0,705510
30,5775,2386.0,706111
30,5780,2404.0,706882
30,5785,2427.0,707597
30,5790,2401.0,708237
30,5795,2374.0,708862
30,5800,2400.0,709608
30,5805,2405.0,710227
30,5810,2425.0,711075
30,5815,2428.0,711723
30,5820,2469.0,712433
30,5825,2474.0,713240
30,5830,2491.0,713787
29,5835,2469.0,714454
29,5840,2472.0,715202
29,5845,2446.0,715788
29,5850,2439.0,716525
29,5855,2434.0,717153
29,5860,2399.0,717693
29,5865,2408.0,718514
29,5870,2413.0,719150
29,5875,2366.0,719566
29,5880,2371.0,720259
29,5885,2327.0,720639
29,5890,2309.0,721137
29,5895,2266.0,721530
29,5900,2237.0,722054
29,5905,2221.0,722553
29,5910,2170.0,722946
29,5915,2174.0,723545
29,5920,2149.0,724196
28,5925,2119.0,724713
28,5930,2076.0,725070
28,5935,2101.0,725871
28,5940,2106.0,726674
28,5945,2098.0,727269
28,5950,2131.0,728264
28,5955,2141.0,728943
28,5960,2151.0,729520
28,5965,2096.0,729945
28,5970,2111.0,730728
28,5975,2174.0,731487
28,5980,2161.0,732135
28,5985,2228.0,732942
28,5990,2289.0,733798
28,5995,2346.0,734550
27,6000,2398.0,735458
27,6005,2431.0,736279
27,6010,2486.0,737080
27,6015,2473.0,737670
27,6020,2498.0,738503
27,6025,2565.0,739382
27,6030,2631.0,740376
27,6035,2625.0,741058
27,6040,2623.0,741756
27,6045,2660.0,742461
27,6050,2657.0,743179
27,6055,2672.0,744134
26,6060,2707.0,744918
26,6065,2728.0,745630
26,6070,2732.0,746421
26,6075,2703.0,747137
26,6080,2699.0,747838
26,6085,2622.0,748213
26,6090,2619.0,748889
26,6095,2584.0,749344
26,6100,2536.0,749929
26,6105,2519.0,750656
26,6110,2506.0,751169
26,6115,2530.0,751933
26,6120,2526.0,752626
26,6125,2477.0,753198
26,6130,2434.0,753835
26,6135,2441.0,754572
25,6140,2437.0,755282
25,6145,2403.0,755840
25,6150,2387.0,756433
25,6155,2367.0,757242
25,6160,2323.0,757779
25,6165,2316.0,758312
25,6170,2311.0,759101
25,6175,2333.0,759904
25,6180,2317.0,760337
25,6185,2371.0,760948
25,6190,2302.0,761238
25,6195,2323.0,761941
25,6200,2346.0,762763
25,6205,2392.0,763639
25,6210,2400.0,764440
25,6215,2389.0,765106
24,6220,2377.0,765791
24,6225,2365.0,766339
24,6230,2386.0,767054
24,6235,2348.0,767501
24,6240,2343.0,768167
24,6245,2387.0,768961
24,6250,2397.0,769742
24,6255,2414.0,770574
24,6260,2428.0,771285
24,6265,2444.0,772131
24,6270,2437.0,772761
24,6275,2452.0,773494
24,6280,2451.0,774025
24,6285,2472.0,774718
24,6290,2501.0,775366
23,6295,2547.0,776105
23,6300,2556.0,776850
23,6305,2529.0,777669
23,6310,2542.0,778457
23,6315,2552.0,779207
23,6320,2576.0,779986
23,6325,2627.0,780845
23,6330,2636.0,781454
23,6335,2699.0,782246
23,6340,2703.0,782802
23,6345,2696.0,783400
23,6350,2724.0,784192
23,6355,2703.0,784999
22,6360,2741.0,785859
22,6365,2777.0,786679
22,6370,2772.0,787486
22,6375,2754.0,788348
22,6380,2815.0,789061
22,6385,2804.0,789884
22,6390,2873.0,790678
22,6395,2865.0,791582
22,6400,2818.0,792070
22,6405,2813.0,792726
22,6410,2819.0,793627
22,6415,2803.0,794299
22,6420,2767.0,794878
22,6425,2746.0,795691
21,6430,2765.0,796467
21,6435,2747.0,797231
21,6440,2746.0,797931
21,6445,2746.0,798645
21,6450,2714.0,799506
21,6455,2727.0,800173
21,6460,2699.0,800895
21,6465,2704.0,801739
21,6470,2718.0,802425
21,6475,2737.0,803199
21,6480,2737.0,804093
21,6485,2745.0,804866
21,6490,2684.0,805645
20,6495,2700.0,806520
20,6500,2772.0,807234
20,6505,2788.0,808007
20,6510,2808.0,808951
20,6515,2847.0,809706
20,6520,2867.0,810544
20,6525,2876.0,811242
20,6530,2859.0,812009
20,6535,2859.0,812625
20,6540,2867.0,813323
20,6545,2865.0,814054
20,6550,2879.0,814831
20,6555,2834.0,815292
20,6560,2842.0,815945
19,6565,2809.0,816653
19,6570,2808.0,817382
19,6575,2798.0,818166
19,6580,2811.0,819051
19,6585,2828.0,819897
19,6590,2854.0,820654
19,6595,2850.0,821374
19,6600,2827.0,822019
19,6605,2792.0,822452
19,6610,2797.0,823447
19,6615,2788.0,824207
19,6620,2844.0,824983
19,6625,2864.0,825753
18,6630,2892.0,826620
18,6635,2929.0,827333
18,6640,2966.0,828151
18,6645,2969.0,828908
18,6650,2961.0,829670
18,6655,3006.0,830528
18,6660,3033.0,831482
18,6665,3058.0,832166
18,6670,3091.0,833018
18,6675,3077.0,833771
18,6680,3039.0,834546
18,6685,3029.0,835173
18,6690,3070.0,835958
18,6695,3068.0,836691
17,6700,3047.0,837102
17,6705,3065.0,837824
17,6710,3026.0,838467
17,6715,3023.0,839381
17,6720,2999.0,840181
17,6725,2998.0,840814
17,6730,2979.0,841481
17,6735,2949.0,842202
17,6740,2924.0,842881
17,6745,2936.0,843797
17,6750,2944.0,844670
17,6755,2936.0,845266
17,6760,2932.0,846141
16,6765,2936.0,846979
16,6770,2929.0,847912
16,6775,2935.0,848662
16,6780,2983.0,849532
16,6785,2989.0,850205
16,6790,2950.0,850662
16,6795,2928.0,851464
16,6800,2914.0,852060
16,6805,2945.0,852884
16,6810,2985.0,853569
16,6815,3015.0,854328
16,6820,3035.0,855115
16,6825,3006.0,855793
16,6830,3038.0,856672
15,6835,3020.0,857208
15,6840,3006.0,857989
15,6845,3012.0,858697
15,6850,3046.0,859524
15,6855,3072.0,860380
15,6860,3073.0,861225
15,6865,3076.0,862123
15,6870,3064.0,863029
15,6875,3067.0,863922
15,6880,3076.0,864760
15,6885,3072.0,865473
15,6890,3091.0,866189
15,6895,3124.0,866983
14,6900,3152.0,867728
14,6905,3163.0,868525
14,6910,3144.0,869277
14,6915,3119.0,869893
14,6920,3119.0,870563
14,6925,3157.0,871460
14,6930,3152.0,872270
14,6935,3203.0,872937
14,6940,3229.0,873614
14,6945,3222.0,874426
14,6950,3172.0,875188
14,6955,3168.0,875826
14,6960,3167.0,876612
14,6965,3167.0,877510
13,6970,3195.0,878207
13,6975,3189.0,878913
13,6980,3179.0,879655
13,6985,3157.0,880256
13,6990,3166.0,881059
13,6995,3142.0,881673
13,7000,3169.0,882372
13,7005,3159.0,883120
13,7010,3154.0,884028
13,7015,3157.0,884867
13,7020,3163.0,885511
13,7025,3139.0,886073
13,7030,3130.0,886851
13,7035,3129.0,887560
12,7040,3150.0,888375
12,7045,3176.0,889248
12,7050,3183.0,889926
12,7055,3182.0,890759
12,7060,3163.0,891441
12,7065,3173.0,892320
12,7070,3158.0,893078
12,7075,3194.0,893793
12,7080,3171.0,894306
12,7085,3183.0,895066
12,7090,3181.0,895938
12,7095,3180.0,896918
12,7100,3192.0,897638
11,7105,3208.0,898233
11,7110,3233.0,898995
11,7115,3261.0,899930
11,7120,3266.0,900715
11,7125,3307.0,901587
11,7130,3345.0,902311
11,7135,3321.0,903060
11,7140,3302.0,903812
11,7145,3280.0,904449
11,7150,3323.0,905134
11,7155,3351.0,905782
11,7160,3405.0,906493
11,7165,3430.0,907347
11,7170,3451.0,908129
10,7175,3482.0,908869
10,7180,3532.0,909511
10,7185,3546.0,910312
10,7190,3571.0,911108
10,7195,3592.0,911869
10,7200,3585.0,912568
10,7205,3589.0,913401
10,7210,3562.0,914178
10,7215,3516.0,914923
10,7220,3521.0,915659
10,7225,3518.0,916461
10,7230,3501.0,917154
10,7235,3508.0,917947
9,7240,3510.0,918828
9,7245,3510.0,919653
9,7250,3518.0,920516
9,7255,3497.0,921336
9,7260,3485.0,922257
9,7265,3457.0,923179
9,7270,3426.0,923895
9,7275,3381.0,924698
9,7280,3351.0,925592
9,7285,3357.0,926167
9,7290,3344.0,926843
9,7295,3350.0,927608
9,7300,3387.0,928323
8,7305,3386.0,929201
8,7310,3420.0,929877
8,7315,3471.0,930586
8,7320,3455.0,931366
8,7325,3429.0,932026
8,7330,3424.0,932946
8,7335,3410.0,933413
8,7340,3416.0,934268
8,7345,3425.0,935078
8,7350,3402.0,935654
8,7355,3425.0,936433
8,7360,3378.0,937035
8,7365,3359.0,937737
8,7370,3352.0,938403
7,7375,3344.0,939163
7,7380,3353.0,939996
7,7385,3378.0,940771
7,7390,3346.0,941424
7,7395,3349.0,942114
7,7400,3302.0,942725
7,7405,3275.0,943551
7,7410,3273.0,944284
7,7415,3262.0,945210
7,7420,3247.0,946016
7,7425,3278.0,946871
7,7430,3270.0,947585
7,7435,3301.0,948206
7,7440,3322.0,948926
6,7445,3347.0,949769
6,7450,3361.0,950494
6,7455,3376.0,951174
6,7460,3405.0,951933
6,7465,3433.0,952775
6,7470,3457.0,953293
6,7475,3476.0,954135
6,7480,3463.0,954655
6,7485,3471.0,955344
6,7490,3459.0,955859
6,7495,3468.0,956533
6,7500,3513.0,957299
6,7505,3503.0,957793
6,7510,3494.0,958344
5,7515,3497.0,959187
5,7520,3501.0,959892
5,7525,3499.0,960645
5,7530,3492.0,961469
5,7535,3472.0,962029
5,7540,3479.0,962825
5,7545,3476.0,963541
5,7550,3489.0,964311
5,7555,3447.0,964800
5,7560,3486.0,965479
5,7565,3457.0,966305
5,7570,3469.0,967004
5,7575,3492.0,967758
5,7580,3513.0,968514
5,7585,3478.0,969091
4,7590,3543.0,969782
4,7595,3548.0,970418
4,7600,3514.0,971097
4,7605,3532.0,971694
4,7610,3556.0,972385
4,7615,3540.0,973036
4,7620,3526.0,973509
4,7625,3513.0,974117
4,7630,3520.0,974801
4,7635,3569.0,975421
4,7640,3565.0,976243
4,7645,3568.0,977083
4,7650,3516.0,977810
4,7655,3553.0,978551
4,7660,3551.0,979244
3,7665,3602.0,979916
3,7670,3592.0,980593
3,7675,3605.0,981224
3,7680,3622.0,981844
3,7685,3638.0,982388
3,7690,3612.0,982907
3,7695,3618.0,983520
3,7700,3656.0,984209
3,7705,3645.0,984763
3,7710,3625.0,985301
3,7715,3666.0,985958
3,7720,3707.0,986655
3,7725,3742.0,987275
3,7730,3708.0,987754
3,7735,3697.0,988509
3,7740,3712.0,989104
3,7745,3691.0,989769
2,7750,3759.0,990380
2,7755,3721.0,991068
2,7760,3694.0,991588
2,7765,3670.0,992184
2,7770,3704.0,992784
2,7775,3675.0,993301
2,7780,3677.0,994001
2,7785,3681.0,994645
2,7790,3690.0,995312
2,7795,3675.0,995990
2,7800,3659.0,996556
2,7805,3717.0,997164
2,7810,3731.0,997856
2,7815,3686.0,998323
2,7820,3670.0,998968
2,7825,3662.0,999640
2,7830,3731.0,1000318
2,7835,3701.0,1000795
2,7840,3669.0,1001474
2,7845,3704.0,1002083
2,7850,3642.0,1002658
2,7855,3621.0,1003225
2,7860,3647.0,1003808
2,7865,3670.0,1004494
2,7870,3669.0,1005081
2,7875,3694.0,1005833
2,7880,3603.0,1006184
2,7885,3538.0,1006512
2,7890,3545.0,1007084
2,7895,3554.0,1007842
2,7900,3568.0,1008516
2,7905,3558.0,1009198
2,7910,3570.0,1009797
2,7915,3597.0,1010434
2,7920,3617.0,1011075
2,7925,3593.0,1011671
2,7930,3596.0,1012291
2,7935,3547.0,1012619
2,7940,3574.0,1013296
2,7945,3549.0,1013915
2,7950,3586.0,1014498
2,7955,3619.0,1015108
2,7960,3620.0,1015710
2,7965,3628.0,1016335
2,7970,3623.0,1017025
2,7975,3608.0,1017676
2,7980,3669.0,1018206
2,7985,3758.0,1018819
2,7990,3735.0,1019313
2,7995,3743.0,1019926
2,8000,3741.0,1020609
2,8005,3748.0,1021247
2,8010,3743.0,1021888
2,8015,3761.0,1022481
2,8020,3765.0,1023077
2,8025,3784.0,1023918
2,8030,3771.0,1024578
2,8035,3820.0,1025091
2,8040,3824.0,1025817
2,8045,3824.0,1026469
2,8050,3832.0,1027074
2,8055,3866.0,1027695
2,8060,3871.0,1028374
2,8065,3871.0,1028980
2,8070,3847.0,1029487
2,8075,3867.0,1030089
2,8080,3868.0,1030626
2,8085,3849.0,1031396
2,8090,3881.0,1032098
2,8095,3879.0,1032780
2,8100,3853.0,1033287
2,8105,3852.0,1033884
2,8110,3852.0,1034562
2,8115,3850.0,1035170
2,8120,3813.0,1035762
2,8125,3827.0,1036362
2,8130,3825.0,1037055
2,8135,3831.0,1037572
2,8140,3831.0,1038256
2,8145,3853.0,1038943
2,8150,3839.0,1039481
2,8155,3839.0,1040097
2,8160,3838.0,1040726
2,8165,3777.0,1041182
2,8170,3806.0,1041794
2,8175,3805.0,1042446
2,8180,3829.0,1043145
2,8185,3819.0,1043660
2,8190,3794.0,1044171
2,8195,3784.0,1044864
2,8200,3814.0,1045462
2,8205,3815.0,1046086
2,8210,3803.0,1046847
2,8215,3794.0,1047608
2,8220,3831.0,1048210
2,8225,3801.0,1048721
2,8230,3817.0,1049316
2,8235,3843.0,1050036
2,8240,3845.0,1050637
2,8245,3820.0,1051164
2,8250,3817.0,1051668
2,8255,3811.0,1052294
2,8260,3782.0,1052810
2,8265,3824.0,1053647
2,8270,3768.0,1054396
2,8275,3763.0,1055075
2,8280,3763.0,1055778
2,8285,3746.0,1056270
2,8290,3776.0,1056865
2,8295,3777.0,1057565
2,8300,3778.0,1058165
2,8305,3779.0,1058841
2,8310,3797.0,1059512
2,8315,3774.0,1060105
2,8320,3741.0,1060690
2,8325,3764.0,1061444
2,8330,3765.0,1062038
2,8335,3765.0,1062705
2,8340,3764.0,1063309
2,8345,3794.0,1063915
2,8350,3828.0,1064517
2,8355,3818.0,1065279
2,8360,3847.0,1065876
2,8365,3864.0,1066473
2,8370,3917.0,1067157
2,8375,3868.0,1067601
2,8380,3856.0,1068225
2,8385,3902.0,1068909
2,8390,3902.0,1069514
2,8395,3885.0,1070138
2,8400,3880.0,1070825
2,8405,3882.0,1071415
2,8410,3858.0,1071943
2,8415,3889.0,1072620
2,8420,3916.0,1073370
2,8425,3923.0,1073963
2,8430,3921.0,1074572
2,8435,3920.0,1075410
2,8440,3921.0,1076017
2,8445,3891.0,1076535
2,8450,3870.0,1077171
2,8455,3882.0,1077845
2,8460,3883.0,1078458
2,8465,3883.0,1079060
2,8470,3887.0,1079669
2,8475,3906.0,1080265
2,8480,3924.0,1080876
2,8485,3920.0,1081559
2,8490,3914.0,1082164
2,8495,3901.0,1082768
2,8500,3863.0,1083356
2,8505,3859.0,1084028
2,8510,3882.0,1084634
2,8515,3883.0,1085274
2,8520,3885.0,1085885
2,8525,3841.0,1086467
2,8530,3780.0,1086995
2,8535,3759.0,1087504
2,8540,3746.0,1088192
2,8545,3772.0,1088857
2,8550,3792.0,1089542
2,8555,3764.0,1090099
2,8560,3753.0,1090793
2,8565,3753.0,1091389
2,8570,3752.0,1091985
2,8575,3785.0,1092691
2,8580,3784.0,1093315
2,8585,3755.0,1093981
2,8590,3752.0,1094749
2,8595,3789.0,1095421
2,8600,3832.0,1096021
2,8605,3830.0,1096811
2,8610,3831.0,1097440
2,8615,3833.0,1098066
2,8620,3834.0,1098686
2,8625,3870.0,1099287
2,8630,3930.0,1100050
2,8635,3963.0,1100679
2,8640,3971.0,1101365
2,8645,3975.0,1101961
2,8650,3958.0,1102607
2,8655,3990.0,1103223
2,8660,4000.0,1103827
2,8665,4001.0,1104425
2,8670,4001.0,1105042
2,8675,4004.0,1105632
2,8680,3978.0,1106257
2,8685,4011.0,1106865
2,8690,3990.0,1107376
2,8695,3960.0,1107960
2,8700,3961.0,1108552
2,8705,3961.0,1109162
2,8710,3925.0,1109658
2,8715,3920.0,1110258
2,8720,3920.0,1110885
2,8725,3928.0,1111486
2,8730,3926.0,1112156
2,8735,3905.0,1112687
2,8740,3910.0,1113307
2,8745,3883.0,1113927
2,8750,3899.0,1114542
2,8755,3898.0,1115133
2,8760,3889.0,1115808
2,8765,3881.0,1116424
2,8770,3862.0,1117191
2,8775,3856.0,1117917
2,8780,3853.0,1118436
2,8785,3852.0,1119068
2,8790,3852.0,1119594
2,8795,3857.0,1120123
2,8800,3857.0,1120723
2,8805,3858.0,1121340
2,8810,3845.0,1121787
2,8815,3839.0,1122374
2,8820,3840.0,1123045
2,8825,3839.0,1123675
2,8830,3843.0,1124285
2,8835,3862.0,1124892
2,8840,3856.0,1125573
2,8845,3881.0,1126248
2,8850,3882.0,1126925
2,8855,3863.0,1127571
2,8860,3864.0,1128162
2,8865,3870.0,1128758
2,8870,3849.0,1129347
2,8875,3850.0,1130019
2,8880,3878.0,1130623
2,8885,3880.0,1131218
2,8890,3909.0,1131825
2,8895,3927.0,1132585
2,8900,3896.0,1133109
2,8905,3898.0,1133731
2,8910,3948.0,1134317
2,8915,3958.0,1134946
2,8920,3956.0,1135629
2,8925,3926.0,1136136
2,8930,3922.0,1136840
2,8935,3923.0,1137442
2,8940,3928.0,1138048
2,8945,3928.0,1138721
2,8950,3912.0,1139473
2,8955,3902.0,1139993
2,8960,3905.0,1140749
2,8965,3906.0,1141424
2,8970,3947.0,1142028
2,8975,3911.0,1142514
2,8980,3891.0,1143242
2,8985,3891.0,1143840
2,8990,3891.0,1144436
2,8995,3880.0,1145119
2,9000,3907.0,1145798
2,9005,3879.0,1146306
2,9010,3855.0,1146932
2,9015,3856.0,1147543
2,9020,3858.0,1148144
2,9025,3886.0,1148753
2,9030,3886.0,1149441
2,9035,3871.0,1150164
2,9040,3870.0,1150764
2,9045,3871.0,1151373
2,9050,3885.0,1151973
2,9055,3915.0,1152578
2,9060,3900.0,1153413
2,9065,3900.0,1154015
2,9070,3899.0,1154621
2,9075,3939.0,1155272
2,9080,3961.0,1155871
2,9085,3958.0,1156491
2,9090,3958.0,1157092
2,9095,3979.0,1157710
2,9100,3982.0,1158307
2,9105,3991.0,1158848
2,9110,4014.0,1159441
2,9115,4010.0,1160133
2,9120,4002.0,1160810
2,9125,4004.0,1161416
2,9130,4006.0,1162021
2,9135,3987.0,1162606
2,9140,3987.0,1163292
2,9145,3987.0,1163890
2,9150,3986.0,1164521
2,9155,3984.0,1165124
2,9160,3985.0,1165665
2,9165,3985.0,1166355
2,9170,3938.0,1166826
2,9175,3906.0,1167420
2,9180,3905.0,1168112
2,9185,3895.0,1168791
2,9190,3878.0,1169481
2,9195,3876.0,1170084
2,9200,3864.0,1170765
2,9205,3884.0,1171449
2,9210,3880.0,1172079
2,9215,3869.0,1172757
2,9220,3878.0,1173353
2,9225,3878.0,1173976
2,9230,3877.0,1174585
2,9235,3909.0,1175277
2,9240,3910.0,1175921
2,9245,3909.0,1176591
2,9250,3911.0,1177191
2,9255,3882.0,1177784
2,9260,3899.0,1178383
2,9265,3895.0,1179047
2,9270,3941.0,1179658
2,9275,3973.0,1180279
2,9280,3973.0,1180873
2,9285,3986.0,1181468
2,9290,4003.0,1182061
2,9295,3991.0,1182739
2,9300,4004.0,1183339
2,9305,4002.0,1184071
2,9310,4007.0,1184661
2,9315,4010.0,1185348
2,9320,4011.0,1185950
2,9325,4008.0,1186710
2,9330,4008.0,1187326
2,9335,4007.0,1188006
2,9340,4001.0,1188689
2,9345,3999.0,1189370
2,9350,4001.0,1190000
2,9355,4016.0,1190676
2,9360,4019.0,1191282
2,9365,4024.0,1191885
2,9370,4018.0,1192572
2,9375,3974.0,1193157
2,9380,3971.0,1193833
2,9385,3963.0,1194421
2,9390,3963.0,1195012
2,9395,3977.0,1195629
2,9400,3974.0,1196232
2,9405,3978.0,1196835
2,9410,3978.0,1197448
2,9415,3985.0,1198126
2,9420,3982.0,1198729
2,9425,3982.0,1199424
2,9430,3984.0,1200052
2,9435,3987.0,1200662
2,9440,3992.0,1201342
2,9445,3977.0,1202110
2,9450,3976.0,1202720
2,9455,3990.0,1203323
2,9460,3990.0,1203934
2,9465,3987.0,1204572
2,9470,3994.0,1205172
2,9475,4037.0,1205832
2,9480,4041.0,1206432
2,9485,4033.0,1207192
2,9490,4016.0,1207773
2,9495,4015.0,1208420
2,9500,4001.0,1208961
2,9505,4001.0,1209562
2,9510,3993.0,1210237
2,9515,3991.0,1210920
2,9520,3994.0,1211534
2,9525,3998.0,1212125
2,9530,3999.0,1212717
2,9535,3981.0,1213256
2,9540,3979.0,1213875
2,9545,3980.0,1214560
2,9550,3976.0,1215169
2,9555,3977.0,1215771
2,9560,3976.0,1216371
2,9565,3977.0,1217044
2,9570,3966.0,1217721
2,9575,3958.0,1218395
2,9580,3942.0,1218959
2,9585,3958.0,1219559
2,9590,3976.0,1220170
2,9595,3967.0,1220924
2,9600,3984.0,1221530
2,9605,3976.0,1222363
2,9610,3984.0,1222969
2,9615,3990.0,1223579
2,9620,3989.0,1224289
2,9625,3987.0,1224904
2,9630,3974.0,1225660
2,9635,3990.0,1226339
2,9640,3990.0,1227013
2,9645,4007.0,1227612
2,9650,4011.0,1228217
2,9655,3997.0,1228985
2,9660,3996.0,1229583
2,9665,3994.0,1230169
2,9670,4006.0,1230758
2,9675,4004.0,1231419
2,9680,4020.0,1232005
2,9685,4019.0,1232632
2,9690,4017.0,1233231
2,9695,4027.0,1233895
2,9700,4014.0,1234571
2,9705,4022.0,1235170
2,9710,3990.0,1235791
2,9715,3991.0,1236398
2,9720,3991.0,1237080
2,9725,3991.0,1237688
2,9730,3976.0,1238232
2,9735,3963.0,1238911
2,9740,3963.0,1239519
2,9745,3963.0,1240192
2,9750,3947.0,1240758
2,9755,3958.0,1241367
2,9760,3960.0,1241958
2,9765,3964.0,1242557
2,9770,3963.0,1243261
2,9775,3973.0,1243884
2,9780,3957.0,1244441
2,9785,3957.0,1245023
2,9790,3956.0,1245610
2,9795,3955.0,1246201
2,9800,3966.0,1246967
2,9805,3961.0,1247643
2,9810,3990.0,1248322
2,9815,3972.0,1248967
2,9820,3959.0,1249799
2,9825,3956.0,1250477
2,9830,3981.0,1251149
2,9835,3972.0,1251759
2,9840,3970.0,1252428
2,9845,3969.0,1253009
2,9850,3976.0,1253677
2,9855,3977.0,1254292
2,9860,3955.0,1254958
2,9865,3954.0,1255534
2,9870,3954.0,1256222
2,9875,3950.0,1256903
2,9880,3954.0,1257660
2,9885,3953.0,1258267
2,9890,3954.0,1258855
2,9895,3955.0,1259446
2,9900,3954.0,1260117
2,9905,3958.0,1260739
2,9910,3942.0,1261498
2,9915,3956.0,1262116
2,9920,3970.0,1262730
2,9925,3962.0,1263474
2,9930,3963.0,1264055
2,9935,3959.0,1264624
2,9940,3943.0,1265260
2,9945,3942.0,1265943
2,9950,3941.0,1266705
2,9955,3941.0,1267468
2,9960,3955.0,1268135
2,9965,3953.0,1268895
2,9970,3952.0,1269557
2,9975,3957.0,1270163
2,9980,3965.0,1270847
2,9985,3966.0,1271450
2,9990,3968.0,1272072
2,9995,3969.0,1272665
2,10000,3937.0,1273254
2,10005,3936.0,1273872
2,10010,3951.0,1274549
2,10015,3951.0,1275133
2,10020,3948.0,1275718
2,10025,3954.0,1276465
2,10030,3954.0,1277145
2,10035,3967.0,1277895
2,10040,3987.0,1278478
2,10045,3990.0,1279064
2,10050,3997.0,1279764
2,10055,4000.0,1280354
2,10060,4006.0,1280956
2,10065,4007.0,1281626
2,10070,4004.0,1282283
2,10075,4004.0,1282886
2,10080,4007.0,1283480
2,10085,3988.0,1284100
2,10090,3950.0,1284585
2,10095,3936.0,1285263
2,10100,3970.0,1285943
2,10105,3971.0,1286530
2,10110,3975.0,1287120
2,10115,3977.0,1287713
2,10120,3978.0,1288318
2,10125,3982.0,1288912
2,10130,3972.0,1289605
2,10135,3986.0,1290204
2,10140,3987.0,1290802
2,10145,3980.0,1291473
2,10150,3984.0,1292077
2,10155,3980.0,1292759
2,10160,3982.0,1293364
2,10165,3983.0,1293957
2,10170,3958.0,1294470
2,10175,3957.0,1295140
2,10180,3958.0,1295748
2,10185,3978.0,1296334
2,10190,4008.0,1297015
2,10195,3991.0,1297511
2,10200,3989.0,1298095
2,10205,3955.0,1298683
2,10210,3955.0,1299273
2,10215,3956.0,1299883
2,10220,3950.0,1300570
2,10225,3951.0,1301170
2,10230,3931.0,1301665
2,10235,3931.0,1302286
2,10240,3928.0,1302969
2,10245,3933.0,1303701
2,10250,3932.0,1304288
2,10255,3929.0,1304974
2,10260,3928.0,1305567
2,10265,3919.0,1306321
2,10270,3945.0,1306918
2,10275,3945.0,1307595
2,10280,3934.0,1308283
2,10285,3931.0,1308981
2,10290,3929.0,1309665
2,10295,3959.0,1310265
2,10300,3960.0,1310978
2,10305,3994.0,1311573
2,10310,3992.0,1312246
2,10315,3991.0,1313002
2,10320,3999.0,1313604
2,10325,4001.0,1314201
2,10330,4033.0,1314795
2,10335,4034.0,1315397
2,10340,4035.0,1315999
2,10345,4037.0,1316594
2,10350,4036.0,1317195
2,10355,4037.0,1317954
2,10360,4030.0,1318623
2,10365,4039.0,1319290
2,10370,4043.0,1319899
2,10375,4033.0,1320579
2,10380,4043.0,1321169
2,10385,4043.0,1321855
2,10390,4052.0,1322453
2,10395,4052.0,1323049
2,10400,4049.0,1323635
2,10405,4050.0,1324231
2,10410,4052.0,1324821
2,10415,4053.0,1325417
2,10420,4048.0,1326037
2,10425,4047.0,1326716
2,10430,4044.0,1327399
2,10435,4040.0,1328089
2,10440,4042.0,1328692
2,10445,4031.0,1329371
2,10450,4033.0,1329961
2,10455,4038.0,1330570
2,10460,4046.0,1331169
2,10465,4022.0,1332019
2,10470,4003.0,1332700
2,10475,4013.0,1333300
2,10480,3998.0,1334079
2,10485,3992.0,1334747
2,10490,3992.0,1335350
2,10495,3992.0,1335955
2,10500,3992.0,1336554
2,10505,3983.0,1337127
2,10510,3983.0,1337737
2,10515,3983.0,1338372
2,10520,3987.0,1338977
2,10525,3981.0,1339734
2,10530,3983.0,1340336
2,10535,3988.0,1340925
2,10540,3987.0,1341513
2,10545,3960.0,1342103
2,10550,3958.0,1342693
2,10555,3957.0,1343409
2,10560,3939.0,1344043
2,10565,3964.0,1344636
2,10570,3975.0,1345322
2,10575,3976.0,1346017
2,10580,3990.0,1346696
2,10585,3999.0,1347293
2,10590,3980.0,1347912
2,10595,3981.0,1348506
2,10600,3973.0,1349182
2,10605,3979.0,1349778
2,10610,3961.0,1350434
2,10615,3961.0,1351114
2,10620,3955.0,1351794
2,10625,3960.0,1352477
2,10630,3961.0,1353081
2,10635,3923.0,1353568
2,10640,3925.0,1354167
2,10645,3962.0,1354759
2,10650,3964.0,1355361
2,10655,3964.0,1355965
2,10660,3981.0,1356572
2,10665,3979.0,1357164
2,10670,3970.0,1357845
2,10675,3966.0,1358535
2,10680,3960.0,1359267
2,10685,3960.0,1359884
2,10690,3949.0,1360396
2,10695,3949.0,1361001
2,10700,3958.0,1361686
2,10705,3961.0,1362303
2,10710,3978.0,1362919
2,10715,3976.0,1363545
2,10720,3982.0,1364230
2,10725,3983.0,1364830
2,10730,3983.0,1365430
2,10735,4017.0,1366125
2,10740,4013.0,1366781
2,10745,4009.0,1367462
2,10750,3995.0,1368060
2,10755,3995.0,1368650
2,10760,3996.0,1369244
2,10765,3993.0,1370004
2,10770,4007.0,1370685
2,10775,4012.0,1371290
2,10780,4017.0,1371904
2,10785,4017.0,1372502
2,10790,4044.0,1373147
2,10795,4043.0,1373745
2,10800,4013.0,1374335
2,10805,3998.0,1375090
2,10810,3995.0,1375692
2,10815,3997.0,1376300
2,10820,3997.0,1376897
2,10825,3997.0,1377496
2,10830,3979.0,1378171
2,10835,3981.0,1378764
2,10840,3969.0,1379312
2,10845,3971.0,1379998
2,10850,3985.0,1380623
2,10855,3987.0,1381239
2,10860,3987.0,1381851
2,10865,3993.0,1382449
2,10870,3996.0,1383057
2,10875,3995.0,1383655
2,10880,3996.0,1384247
2,10885,3996.0,1384842
2,10890,3995.0,1385593
2,10895,3984.0,1386268
2,10900,4007.0,1387034
2,10905,4020.0,1387633
2,10910,4015.0,1388321
2,10915,4016.0,1388926
2,10920,4013.0,1389525
2,10925,4007.0,1390207
2,10930,4024.0,1390896
2,10935,4025.0,1391599
2,10940,4039.0,1392197
2,10945,4037.0,1392877
2,10950,4035.0,1393473
2,10955,4004.0,1393982
2,10960,4003.0,1394591
2,10965,3973.0,1395089
2,10970,3972.0,1395684
2,10975,3970.0,1396276
2,10980,3953.0,1396819
2,10985,3949.0,1397498
2,10990,3924.0,1398023
2,10995,3916.0,1398567
2,11000,3926.0,1399161
2,11005,3926.0,1399830
2,11010,3932.0,1400499
2,11015,3931.0,1401103
2,11020,3934.0,1401708
2,11025,3939.0,1402370
2,11030,3938.0,1403049
2,11035,3939.0,1403647
2,11040,3940.0,1404233
2,11045,3909.0,1404727
2,11050,3908.0,1405332
2,11055,3935.0,1406021
2,11060,3935.0,1406616
2,11065,3933.0,1407205
2,11070,3932.0,1407899
2,11075,3918.0,1408658
2,11080,3929.0,1409334
2,11085,3932.0,1409934
2,11090,3962.0,1410528
2,11095,3980.0,1411132
2,11100,3980.0,1411734
2,11105,3981.0,1412335
2,11110,3984.0,1412938
2,11115,3985.0,1413546
2,11120,3983.0,1414224
2,11125,3985.0,1414839
2,11130,3986.0,1415521
2,11135,3982.0,1416194
2,11140,3983.0,1416790
2,11145,4017.0,1417474
2,11150,4019.0,1418146
2,11155,3992.0,1418661
2,11160,3993.0,1419254
2,11165,4024.0,1419854
2,11170,4024.0,1420459
2,11175,4041.0,1421062
2,11180,4049.0,1421664
2,11185,4047.0,1422348
2,11190,4041.0,1423015
2,11195,4034.0,1423693
2,11200,4031.0,1424283
2,11205,4031.0,1424891
2,11210,3996.0,1425483
2,11215,3996.0,1426091
2,11220,3997.0,1426694
2,11225,3993.0,1427342
2,11230,3987.0,1428025
2,11235,3987.0,1428702
2,11240,3987.0,1429313
2,11245,3955.0,1429915
2,11250,3956.0,1430537
2,11255,3987.0,1431137
2,11260,3987.0,1431746
2,11265,3957.0,1432338
2,11270,3954.0,1433022
2,11275,3953.0,1433631
2,11280,3928.0,1434391
2,11285,3901.0,1434910
2,11290,3902.0,1435506
2,11295,3908.0,1436116
2,11300,3910.0,1436796
2,11305,3910.0,1437396
2,11310,3934.0,1438072
2,11315,3933.0,1438749
2,11320,3934.0,1439357
2,11325,3938.0,1439979
2,11330,3941.0,1440659
2,11335,3944.0,1441267
2,11340,3944.0,1441889
2,11345,3948.0,1442479
2,11350,3948.0,1443090
2,11355,3946.0,1443713
2,11360,3934.0,1444482
2,11365,3963.0,1445091
2,11370,3966.0,1445772
2,11375,3938.0,1446381
2,11380,3962.0,1446981
2,11385,3989.0,1447669
2,11390,3994.0,1448266
2,11395,3977.0,1448930
2,11400,3979.0,1449533
2,11405,3980.0,1450139
2,11410,3979.0,1450713
2,11415,3978.0,1451373
2,11420,3978.0,1451968
2,11425,3943.0,1452520
2,11430,3940.0,1453208
2,11435,3940.0,1453829
2,11440,3939.0,1454498
2,11445,3968.0,1455096
2,11450,3967.0,1455699
2,11455,3968.0,1456295
2,11460,3978.0,1456974
2,11465,3979.0,1457569
2,11470,3977.0,1458167
2,11475,4005.0,1458773
2,11480,4001.0,1459367
2,11485,4003.0,1459981
2,11490,3992.0,1460659
2,11495,4008.0,1461257
2,11500,4004.0,1461845
2,11505,4003.0,1462443
2,11510,4014.0,1463036
2,11515,4011.0,1463800
2,11520,4011.0,1464415
2,11525,4037.0,1465188
2,11530,4037.0,1465884
2,11535,4038.0,1466488
2,11540,3999.0,1467074
2,11545,3993.0,1467769
2,11550,3964.0,1468283
2,11555,3964.0,1468967
2,11560,3965.0,1469566
2,11565,3962.0,1470252
2,11570,3958.0,1470924
2,11575,3955.0,1471592
2,11580,3957.0,1472252
2,11585,3958.0,1472856
2,11590,3967.0,1473459
2,11595,3939.0,1473973
2,11600,3935.0,1474732
2,11605,3935.0,1475334
2,11610,3936.0,1475946
2,11615,3941.0,1476551
2,11620,3936.0,1477137
2,11625,3940.0,1477821
2,11630,3946.0,1478521
2,11635,3946.0,1479121
2,11640,3955.0,1479665
2,11645,3962.0,1480256
2,11650,3990.0,1480886
2,11655,3987.0,1481482
2,11660,3984.0,1482115
2,11665,3985.0,1482870
2,11670,3983.0,1483544
2,11675,3984.0,1484146
2,11680,3970.0,1484703
2,11685,3967.0,1485300
2,11690,3968.0,1485897
2,11695,3998.0,1486530
2,11700,4002.0,1487137
2,11705,4003.0,1487734
2,11710,4003.0,1488330
2,11715,4001.0,1488929
2,11720,4007.0,1489539
2,11725,4004.0,1490228
2,11730,4002.0,1490982
2,11735,4000.0,1491662
2,11740,4023.0,1492271
2,11745,4021.0,1492923
2,11750,4020.0,1493523
2,11755,4022.0,1494160
2,11760,3991.0,1494763
2,11765,3993.0,1495395
2,11770,3999.0,1496080
2,11775,4001.0,1496690
2,11780,4007.0,1497384
2,11785,4009.0,1497977
2,11790,4008.0,1498591
2,11795,4010.0,1499189
2,11800,4014.0,1499790
2,11805,4012.0,1500464
2,11810,4009.0,1501139
2,11815,4011.0,1501734
2,11820,4010.0,1502416
2,11825,4017.0,1503020
2,11830,4018.0,1503624
2,11835,4019.0,1504222
2,11840,4027.0,1504832
2,11845,4028.0,1505517
2,11850,4030.0,1506173
2,11855,4032.0,1506771
2,11860,4042.0,1507407
2,11865,4043.0,1508007
2,11870,4016.0,1508562
2,11875,4017.0,1509177
2,11880,4028.0,1509780
2,11885,4022.0,1510471
2,11890,4023.0,1511063
2,11895,4019.0,1511744
2,11900,4017.0,1512355
2,11905,3988.0,1512859
2,11910,3957.0,1513368
2,11915,3951.0,1514066
2,11920,3938.0,1514818
2,11925,3899.0,1515399
2,11930,3900.0,1516083
2,11935,3896.0,1516689
2,11940,3894.0,1517349
2,11945,3863.0,1517851
2,11950,3857.0,1518525
2,11955,3838.0,1519076
2,11960,3863.0,1519674
2,11965,3862.0,1520357
2,11970,3889.0,1520954
2,11975,3887.0,1521624
2,11980,3886.0,1522223
2,11985,3891.0,1522907
2,11990,3892.0,1523535
2,11995,3890.0,1524123
2,12000,3891.0,1524739
2,12005,3921.0,1525365
2,12010,3923.0,1525958
2,12015,3928.0,1526576
2,12020,3940.0,1527179
2,12025,3978.0,1527860
2,12030,3975.0,1528567
2,12035,3977.0,1529268
2,12040,3970.0,1529975
2,12045,4001.0,1530653
2,12050,4003.0,1531254
2,12055,4019.0,1531933
2,12060,4016.0,1532613
2,12065,4015.0,1533218
2,12070,4019.0,1533840
2,12075,4019.0,1534436
2,12080,3999.0,1535107
2,12085,3969.0,1535718
2,12090,3969.0,1536387
2,12095,3972.0,1537067
2,12100,3973.0,1537663
2,12105,3972.0,1538264
2,12110,4001.0,1538954
2,12115,4001.0,1539552
2,12120,4003.0,1540203
2,12125,3999.0,1540879
2,12130,3999.0,1541552
2,12135,4001.0,1542252
2,12140,4004.0,1542855
2,12145,4003.0,1543534
2,12150,4005.0,1544212
2,12155,4008.0,1544808
2,12160,4010.0,1545404
2,12165,4010.0,1545994
2,12170,4009.0,1546606
2,12175,4001.0,1547442
2,12180,4018.0,1548076
2,12185,4045.0,1548697
2,12190,4042.0,1549387
2,12195,4044.0,1549990
2,12200,4044.0,1550605
2,12205,4045.0,1551215
2,12210,4047.0,1551827
2,12215,4046.0,1552458
2,12220,4045.0,1553054
2,12225,4051.0,1553655
2,12230,4038.0,1554228
2,12235,4037.0,1554904
2,12240,4043.0,1555506
2,12245,4044.0,1556123
2,12250,4014.0,1556745
2,12255,4014.0,1557345
2,12260,4009.0,1558036
2,12265,4008.0,1558618
2,12270,4008.0,1559214
2,12275,4017.0,1559806
2,12280,4019.0,1560411
2,12285,4006.0,1561003
2,12290,4004.0,1561680
2,12295,4005.0,1562280
2,12300,4004.0,1562886
2,12305,4002.0,1563497
2,12310,4001.0,1564106
2,12315,4003.0,1564716
2,12320,3990.0,1565354
2,12325,3988.0,1565971
2,12330,4005.0,1566600
2,12335,3977.0,1567172
2,12340,3952.0,1567697
2,12345,3952.0,1568302
2,12350,3983.0,1568902
2,12355,3975.0,1569497
2,12360,3979.0,1570092
2,12365,3981.0,1570809
2,12370,3954.0,1571358
2,12375,3955.0,1571961
2,12380,3956.0,1572565
2,12385,3973.0,1573178
2,12390,3977.0,1573782
2,12395,3947.0,1574290
2,12400,3946.0,1574889
2,12405,3930.0,1575577
2,12410,3932.0,1576180
2,12415,3931.0,1576776
2,12420,3945.0,1577383
2,12425,3946.0,1577987
2,12430,3947.0,1578579
2,12435,3970.0,1579197
2,12440,3992.0,1579789
2,12445,3990.0,1580371
2,12450,3986.0,1580955
2,12455,3992.0,1581633
2,12460,3994.0,1582232
2,12465,3994.0,1582847
2,12470,4007.0,1583506
2,12475,4007.0,1584113
2,12480,4007.0,1584718
2,12485,4008.0,1585324
2,12490,4006.0,1586009
2,12495,4036.0,1586609
2,12500,4037.0,1587217
2,12505,4051.0,1587817
2,12510,4049.0,1588431
2,12515,4049.0,1589060
2,12520,4047.0,1589658
2,12525,4047.0,1590253
2,12530,4047.0,1590850
2,12535,4047.0,1591455
2,12540,4049.0,1592060
2,12545,4051.0,1592746
2,12550,4042.0,1593425
2,12555,4014.0,1593946
2,12560,4008.0,1594706
2,12565,4009.0,1595338
2,12570,4023.0,1595943
2,12575,3997.0,1596561
2,12580,3992.0,1597157
2,12585,3992.0,1597763
2,12590,3993.0,1598365
2,12595,3963.0,1598881
2,12600,3957.0,1599481
2,12605,3962.0,1600092
2,12610,3945.0,1600632
2,12615,3943.0,1601314
2,12620,3944.0,1601909
2,12625,3945.0,1602506
2,12630,3945.0,1603103
2,12635,3952.0,1603715
2,12640,3922.0,1604236
2,12645,3888.0,1604792
2,12650,3901.0,1605399
2,12655,3915.0,1606090
2,12660,3884.0,1606590
2,12665,3883.0,1607190
2,12670,3883.0,1607792
2,12675,3907.0,1608399
2,12680,3909.0,1608995
2,12685,3905.0,1609591
2,12690,3907.0,1610196
2,12695,3936.0,1610791
2,12700,3939.0,1611382
2,12705,3938.0,1611981
2,12710,3957.0,1612587
2,12715,3960.0,1613182
2,12720,3960.0,1613779
2,12725,3959.0,1614384
2,12730,3959.0,1614998
2,12735,3956.0,1615682
2,12740,3971.0,1616311
2,12745,3944.0,1616766
2,12750,3943.0,1617365
2,12755,3958.0,1617963
2,12760,3993.0,1618566
2,12765,3992.0,1619160
2,12770,3992.0,1619770
2,12775,3990.0,1620360
2,12780,3994.0,1620997
2,12785,3993.0,1621621
2,12790,3993.0,1622297
2,12795,3993.0,1622907
2,12800,3996.0,1623514
2,12805,3978.0,1624064
2,12810,3977.0,1624667
2,12815,3961.0,1625352
2,12820,3930.0,1625860
2,12825,3930.0,1626455
2,12830,3929.0,1627057
2,12835,3931.0,1627671
2,12840,3943.0,1628262
2,12845,4003.0,1628953
2,12850,4004.0,1629550
2,12855,4004.0,1630237
2,12860,4003.0,1630918
2,12865,4003.0,1631585
2,12870,4003.0,1632187
2,12875,4004.0,1632815
2,12880,4004.0,1633414
2,12885,4009.0,1634011
2,12890,4002.0,1634596
2,12895,3982.0,1635132
2,12900,3982.0,1635732
2,12905,3994.0,1636418
2,12910,3995.0,1637029
2,12915,4009.0,1637647
2,12920,4040.0,1638246
2,12925,4037.0,1638942
2,12930,4032.0,1639651
2,12935,4029.0,1640261
2,12940,3969.0,1640747
2,12945,3968.0,1641350
2,12950,3970.0,1641952
2,12955,3970.0,1642553
2,12960,3940.0,1643066
2,12965,3942.0,1643664
2,12970,3941.0,1644320
2,12975,3940.0,1644999
2,12980,3940.0,1645602
2,12985,3938.0,1646241
2,12990,3944.0,1646842
2,12995,3965.0,1647440
2,13000,3965.0,1648052
2,13005,3958.0,1648737
2,13010,3928.0,1649241
2,13015,3840.0,1649574
2,13020,3829.0,1650244
2,13025,3833.0,1650846
2,13030,3838.0,1651445
2,13035,3840.0,1652045
2,13040,3885.0,1652588
2,13045,3888.0,1653193
2,13050,3887.0,1653785
2,13055,3886.0,1654391
2,13060,3919.0,1655024
2,13065,3916.0,1655697
2,13070,3917.0,1656295
2,13075,3921.0,1656937
2,13080,3920.0,1657546
2,13085,3921.0,1658167
2,13090,3894.0,1658692
2,13095,3890.0,1659390
2,13100,3891.0,1660025
2,13105,3892.0,1660785
2,13110,3921.0,1661385
2,13115,4009.0,1661988
2,13120,3986.0,1662569
2,13125,3983.0,1663310
2,13130,3923.0,1663720
2,13135,3910.0,1664274
2,13140,3905.0,1664955
2,13145,3894.0,1665516
2,13150,3893.0,1666116
2,13155,3894.0,1666718
2,13160,3893.0,1667400
2,13165,3896.0,1667999
2,13170,3867.0,1668524
2,13175,3863.0,1669162
2,13180,3839.0,1669697
2,13185,3839.0,1670292
2,13190,3866.0,1670908
2,13195,3869.0,1671505
2,13200,3856.0,1672071
2,13205,3863.0,1672758
2,13210,3855.0,1673440
2,13215,3855.0,1674119
2,13220,3883.0,1674697
2,13225,3867.0,1675239
2,13230,3928.0,1675848
2,13235,3942.0,1676448
2,13240,3965.0,1677063
2,13245,3975.0,1677661
2,13250,3976.0,1678271
2,13255,3971.0,1678867
2,13260,3957.0,1679435
2,13265,3957.0,1680035
2,13270,3986.0,1680670
2,13275,3989.0,1681348
2,13280,4011.0,1681947
2,13285,4012.0,1682564
2,13290,4011.0,1683169
2,13295,4012.0,1683769
2,13300,4023.0,1684371
2,13305,4028.0,1684976
2,13310,4036.0,1685606
2,13315,4007.0,1686213
2,13320,4004.0,1686887
2,13325,3993.0,1687405
2,13330,3989.0,1688016
2,13335,3985.0,1688615
2,13340,3985.0,1689299
2,13345,3953.0,1689809
2,13350,3950.0,1690573
2,13355,3954.0,1691261
2,13360,3967.0,1691879
2,13365,3963.0,1692483
2,13370,3948.0,1693069
2,13375,3948.0,1693678
2,13380,3950.0,1694277
2,13385,3937.0,1694832
2,13390,3939.0,1695426
2,13395,3937.0,1696025
2,13400,3933.0,1696612
2,13405,3927.0,1697224
2,13410,3927.0,1697911
2,13415,3954.0,1698499
2,13420,3964.0,1699126
2,13425,3980.0,1699686
2,13430,3983.0,1700364
2,13435,3985.0,1701046
2,13440,3986.0,1701673
2,13445,3988.0,1702185
2,13450,3988.0,1702785
2,13455,3986.0,1703419
2,13460,3988.0,1704094
2,13465,3992.0,1704700
2,13470,4008.0,1705311
2,13475,3972.0,1705810
2,13480,3969.0,1706519
2,13485,3957.0,1707284
2,13490,3947.0,1707963
2,13495,3949.0,1708570
2,13500,3951.0,1709266
2,13505,3951.0,1709849
2,13510,3943.0,1710463
2,13515,3946.0,1711054
2,13520,3929.0,1711733
2,13525,3940.0,1712320
2,13530,3940.0,1712916
2,13535,3943.0,1713509
2,13540,3912.0,1714019
2,13545,3930.0,1714587
2,13550,3934.0,1715201
2,13555,3937.0,1715870
2,13560,3914.0,1716402
2,13565,3912.0,1717079
2,13570,3909.0,1717699
2,13575,3931.0,1718381
2,13580,3903.0,1719014
2,13585,3925.0,1719697
2,13590,3928.0,1720369
2,13595,3928.0,1720979
2,13600,3929.0,1721636
2,13605,3906.0,1722184
2,13610,3914.0,1722798
2,13615,3912.0,1723475
2,13620,3929.0,1724069
2,13625,3932.0,1724676
2,13630,3927.0,1725355
2,13635,3837.0,1725683
2,13640,3852.0,1726242
2,13645,3861.0,1726843
2,13650,3857.0,1727608
2,13655,3858.0,1728203
2,13660,3879.0,1728914
2,13665,3871.0,1729751
2,13670,3873.0,1730395
2,13675,3887.0,1731004
2,13680,3918.0,1731604
2,13685,3921.0,1732203
2,13690,3926.0,1732878
2,13695,3912.0,1733444
2,13700,3913.0,1734066
2,13705,3911.0,1734596
2,13710,3910.0,1735191
2,13715,3896.0,1735836
2,13720,3866.0,1736345
2,13725,3863.0,1737032
2,13730,3869.0,1737631
2,13735,3929.0,1738137
2,13740,3944.0,1738736
2,13745,3944.0,1739348
2,13750,3948.0,1739964
2,13755,3947.0,1740576
2,13760,3946.0,1741257
2,13765,3950.0,1741938
2,13770,3934.0,1742498
2,13775,3933.0,1743102
2,13780,3933.0,1743705
2,13785,3931.0,1744306
2,13790,3931.0,1745002
2,13795,3944.0,1745603
2,13800,3943.0,1746246
2,13805,3973.0,1746893
2,13810,3970.0,1747566
2,13815,3967.0,1748137
2,13820,3994.0,1748734
2,13825,3993.0,1749336
2,13830,3992.0,1750018
2,13835,4022.0,1750621
2,13840,4019.0,1751270
2,13845,4020.0,1751914
2,13850,4019.0,1752529
2,13855,4003.0,1753076
2,13860,4006.0,1753682
2,13865,3981.0,1754197
2,13870,3966.0,1754706
2,13875,3965.0,1755470
2,13880,3964.0,1756071
2,13885,3963.0,1756713
2,13890,3959.0,1757304
2,13895,3957.0,1757896
2,13900,3960.0,1758504
2,13905,3962.0,1759104
2,13910,3966.0,1759698
2,13915,3962.0,1760226
2,13920,3962.0,1760841
2,13925,3964.0,1761444
2,13930,3965.0,1762047
2,13935,3933.0,1762598
2,13940,3904.0,1763119
2,13945,3876.0,1763617
2,13950,3861.0,1764179
2,13955,3878.0,1764766
2,13960,3878.0,1765366
2,13965,3906.0,1765979
2,13970,3936.0,1766654
2,13975,3937.0,1767333
2,13980,3935.0,1767934
2,13985,3932.0,1768531
2,13990,3937.0,1769134
2,13995,3923.0,1769697
2,14000,3915.0,1770369
2,14005,3915.0,1770975
2,14010,3900.0,1771530
2,14015,3923.0,1772152
2,14020,3896.0,1772663
2,14025,3897.0,1773278
2,14030,3895.0,1773905
2,14035,3926.0,1774520
2,14040,3957.0,1775197
2,14045,3988.0,1775801
2,14050,4003.0,1776425
2,14055,3984.0,1776978
2,14060,3984.0,1777589
2,14065,3986.0,1778180
2,14070,3987.0,1778799
2,14075,3989.0,1779404
2,14080,3992.0,1780090
2,14085,3997.0,1780750
2,14090,3996.0,1781353
2,14095,4013.0,1781960
2,14100,4021.0,1782555
2,14105,4021.0,1783170
2,14110,4036.0,1783786
2,14115,4036.0,1784388
2,14120,4064.0,1785147
2,14125,4065.0,1785750
2,14130,4065.0,1786355
2,14135,4049.0,1787030
2,14140,4046.0,1787690
2,14145,4044.0,1788371
2,14150,4044.0,1788983
2,14155,4063.0,1789627
2,14160,4061.0,1790237
2,14165,4058.0,1790876
2,14170,4059.0,1791489
2,14175,4058.0,1792092
2,14180,4051.0,1792758
2,14185,4052.0,1793375
2,14190,4050.0,1794000
2,14195,4050.0,1794596
2,14200,4022.0,1795123
2,14205,4021.0,1795808
2,14210,4022.0,1796415
2,14215,4019.0,1797104
2,14220,4021.0,1797712
2,14225,4020.0,1798331
2,14230,4022.0,1798924
2,14235,4038.0,1799545
2,14240,4042.0,1800154
2,14245,4037.0,1800783
2,14250,4034.0,1801460
2,14255,4030.0,1802146
2,14260,4032.0,1802745
2,14265,4034.0,1803422
2,14270,4032.0,1804035
2,14275,4032.0,1804650
2,14280,4038.0,1805331
2,14285,4038.0,1805930
2,14290,4042.0,1806531
2,14295,4040.0,1807219
2,14300,4068.0,1807829
2,14305,4035.0,1808411
2,14310,4031.0,1809011
2,14315,4035.0,1809615
2,14320,4034.0,1810236
2,14325,4034.0,1810842
2,14330,4021.0,1811531
2,14335,4021.0,1812119
2,14340,4019.0,1812790
2,14345,4026.0,1813392
2,14350,4020.0,1813965
2,14355,4020.0,1814657
2,14360,4005.0,1815328
2,14365,4006.0,1815925
2,14370,4008.0,1816529
2,14375,4005.0,1817201
2,14380,3982.0,1817731
2,14385,3982.0,1818330
2,14390,3982.0,1818936
2,14395,3984.0,1819533
2,14400,3984.0,1820127
2,14405,4018.0,1820715
2,14410,4019.0,1821321
2,14415,4016.0,1821936
2,14420,4016.0,1822542
2,14425,4016.0,1823151
2,14430,4028.0,1823770
2,14435,4019.0,1824538
2,14440,4004.0,1825164
2,14445,4004.0,1825760
2,14450,3984.0,1826266
2,14455,3971.0,1826814
2,14460,3982.0,1827465
2,14465,3982.0,1828058
2,14470,3980.0,1828678
2,14475,3957.0,1829205
2,14480,3982.0,1829800
2,14485,3981.0,1830401
2,14490,3981.0,1830998
2,14495,3980.0,1831680
2,14500,3974.0,1832255
2,14505,3973.0,1832858
2,14510,3974.0,1833543
2,14515,3975.0,1834143
2,14520,3974.0,1834743
2,14525,3974.0,1835343
2,14530,3974.0,1835940
2,14535,3983.0,1836551
2,14540,3999.0,1837158
2,14545,3968.0,1837672
2,14550,3996.0,1838268
2,14555,4010.0,1838865
2,14560,4011.0,1839465
2,14565,4010.0,1840111
2,14570,3959.0,1840630
2,14575,3986.0,1841235
2,14580,3984.0,1841827
2,14585,3983.0,1842426
2,14590,3983.0,1843093
2,14595,3956.0,1843637
2,14600,3962.0,1844232
2,14605,3963.0,1844826
2,14610,3963.0,1845505
2,14615,3961.0,1846109
2,14620,3959.0,1846719
2,14625,3957.0,1847317
2,14630,3958.0,1847915
2,14635,3959.0,1848517
2,14640,3961.0,1849129
2,14645,3977.0,1849709
2,14650,3979.0,1850317
2,14655,3982.0,1850938
2,14660,3985.0,1851548
2,14665,3986.0,1852156
2,14670,4039.0,1852750
2,14675,4037.0,1853361
2,14680,4038.0,1853991
2,14685,4023.0,1854571
2,14690,4023.0,1855169
2,14695,4048.0,1855770
2,14700,4037.0,1856457
2,14705,4032.0,1857135
2,14710,4034.0,1857739
2,14715,4008.0,1858242
2,14720,4012.0,1858848
2,14725,4014.0,1859458
2,14730,4014.0,1860063
2,14735,4013.0,1860665
2,14740,4013.0,1861270
2,14745,4026.0,1861872
2,14750,4024.0,1862464
2,14755,4023.0,1863073
2,14760,4021.0,1863679
2,14765,4016.0,1864358
2,14770,4015.0,1864963
2,14775,4009.0,1865564
2,14780,3994.0,1866117
2,14785,4007.0,1866721
2,14790,4006.0,1867407
2,14795,4009.0,1868041
2,14800,4019.0,1868643
2,14805,4023.0,1869237
2,14810,4023.0,1869844
2,14815,4047.0,1870444
2,14820,4047.0,1871043
2,14825,4009.0,1871516
2,14830,4009.0,1872113
2,14835,4005.0,1872796
2,14840,4004.0,1873397
2,14845,4006.0,1874004
2,14850,4006.0,1874599
2,14855,4005.0,1875197
2,14860,3974.0,1875786
2,14865,3979.0,1876390
2,14870,3979.0,1876999
2,14875,3985.0,1877593
2,14880,3988.0,1878154
2,14885,3990.0,1878754
2,14890,3989.0,1879428
2,14895,3985.0,1880189
2,14900,3986.0,1880791
2,14905,3981.0,1881392
2,14910,3954.0,1881919
2,14915,3958.0,1882541
2,14920,3958.0,1883144
2,14925,3993.0,1883825
2,14930,3992.0,1884560
2,14935,3997.0,1885165
2,14940,3996.0,1885849
2,14945,3995.0,1886499
2,14950,3996.0,1887170
2,14955,3998.0,1887768
2,14960,4030.0,1888374
2,14965,4016.0,1889104
2,14970,4016.0,1889717
2,14975,4016.0,1890318
2,14980,4028.0,1890911
2,14985,4029.0,1891518
2,14990,4030.0,1892121
2,14995,4031.0,1892795
2,15000,4031.0,1893396
2,15005,4036.0,1893989
2,15010,4057.0,1894576
2,15015,4022.0,1895183
2,15020,4005.0,1895741
2,15025,4009.0,1896362
2,15030,4009.0,1896969
2,15035,4007.0,1897572
2,15040,4007.0,1898250
2,15045,4008.0,1898863
2,15050,4007.0,1899482
2,15055,4007.0,1900081
2,15060,3980.0,1900612
2,15065,3995.0,1901216
2,15070,3993.0,1901840
2,15075,3994.0,1902448
2,15080,3975.0,1903007
2,15085,3974.0,1903696
2,15090,3975.0,1904296
2,15095,3973.0,1904893
2,15100,3972.0,1905489
2,15105,3960.0,1906131
2,15110,3958.0,1906888
2,15115,3995.0,1907501
2,15120,4012.0,1908113
2,15125,4012.0,1908710
2,15130,4013.0,1909340
2,15135,4015.0,1909959
2,15140,4011.0,1910562
2,15145,4010.0,1911242
2,15150,3997.0,1912007
2,15155,3997.0,1912609
2,15160,4020.0,1913299
2,15165,4019.0,1913907
2,15170,4022.0,1914523
2,15175,4004.0,1915078
2,15180,4024.0,1915684
2,15185,3994.0,1916231
2,15190,3993.0,1916869
2,15195,3997.0,1917470
2,15200,3966.0,1918012
2,15205,3977.0,1918623
2,15210,3983.0,1919229
2,15215,3983.0,1919833
2,15220,3983.0,1920438
2,15225,3982.0,1921132
2,15230,3982.0,1921804
2,15235,3980.0,1922411
2,15240,3984.0,1923020
2,15245,3949.0,1923537
2,15250,3964.0,1924157
2,15255,3963.0,1924769
2,15260,3966.0,1925374
2,15265,3966.0,1926011
2,15270,3963.0,1926617
2,15275,3980.0,1927216
2,15280,3979.0,1927858
2,15285,4011.0,1928462
2,15290,3985.0,1928987
2,15295,3984.0,1929690
2,15300,4016.0,1930356
2,15305,4018.0,1930959
2,15310,4004.0,1931515
2,15315,4002.0,1932125
2,15320,3999.0,1932726
2,15325,3980.0,1933364
2,15330,3967.0,1933926
2,15335,3909.0,1934345
2,15340,3909.0,1934950
2,15345,3943.0,1935558
2,15350,3942.0,1936181
2,15355,3942.0,1936781
2,15360,3941.0,1937469
2,15365,3935.0,1938148
2,15370,3910.0,1938674
2,15375,3912.0,1939280
2,15380,3912.0,1939960
2,15385,3912.0,1940564
2,15390,3938.0,1941165
2,15395,3938.0,1941770
2,15400,3937.0,1942435
2,15405,3935.0,1943115
2,15410,3950.0,1943717
2,15415,3948.0,1944322
2,15420,3951.0,1944922
2,15425,3971.0,1945531
2,15430,3982.0,1946128
2,15435,4011.0,1946646
2,15440,3998.0,1947307
2,15445,3969.0,1947810
2,15450,3940.0,1948319
2,15455,3941.0,1948922
2,15460,3944.0,1949538
2,15465,3950.0,1950154
2,15470,3978.0,1950795
2,15475,3976.0,1951440
2,15480,3977.0,1952056
2,15485,3944.0,1952570
2,15490,3940.0,1953253
2,15495,3942.0,1953854
2,15500,3941.0,1954456
2,15505,3874.0,1954856
2,15510,3873.0,1955474
2,15515,3873.0,1956162
2,15520,3872.0,1956770
2,15525,3871.0,1957373
2,15530,3872.0,1957978
2,15535,3902.0,1958574
2,15540,3906.0,1959256
2,15545,3937.0,1959872
2,15550,3967.0,1960482
2,15555,3966.0,1961092
2,15560,3965.0,1961699
2,15565,3966.0,1962296
2,15570,3932.0,1962888
2,15575,3933.0,1963506
2,15580,3931.0,1964116
2,15585,3964.0,1964736
2,15590,3949.0,1965276
2,15595,3949.0,1965878
2,15600,3951.0,1966472
2,15605,4020.0,1967072
2,15610,4020.0,1967672
2,15615,4024.0,1968271
2,15620,4020.0,1968873
2,15625,4018.0,1969544
2,15630,4018.0,1970240
2,15635,4018.0,1970848
2,15640,4028.0,1971438
2,15645,4025.0,1972113
2,15650,4025.0,1972723
2,15655,4018.0,1973489
2,15660,3996.0,1974027
2,15665,3995.0,1974644
2,15670,4028.0,1975246
2,15675,4011.0,1975810
2,15680,4010.0,1976407
2,15685,4006.0,1977024
2,15690,4025.0,1977628
2,15695,4025.0,1978231
2,15700,4025.0,1978826
2,15705,4024.0,1979432
2,15710,4019.0,1980116
2,15715,4018.0,1980717
2,15720,3990.0,1981272
2,15725,3963.0,1981827
2,15730,3963.0,1982427
2,15735,3964.0,1983043
2,15740,3909.0,1983477
2,15745,3912.0,1984087
2,15750,3901.0,1984668
2,15755,3902.0,1985265
2,15760,3923.0,1985904
2,15765,3922.0,1986515
2,15770,3917.0,1987117
2,15775,3911.0,1987659
2,15780,3908.0,1988258
2,15785,3910.0,1988870
2,15790,3911.0,1989471
2,15795,3907.0,1990155
2,15800,3906.0,1990750
2,15805,3904.0,1991340
2,15810,3909.0,1992019
2,15815,3907.0,1992623
2,15820,3938.0,1993234
2,15825,3967.0,1993842
2,15830,3967.0,1994444
2,15835,3953.0,1995144
2,15840,4008.0,1995746
2,15845,3972.0,1996415
2,15850,3980.0,1997108
2,15855,3985.0,1997754
2,15860,3985.0,1998359
2,15865,3955.0,1998876
2,15870,3961.0,1999520
