% time spent exploring,episodes,mean 100 episode reward,steps
99,5,675.0,627
99,10,488.9,1016
99,15,507.1,1690
99,20,631.6,2496
99,25,670.8,3482
99,30,603.4,4146
99,35,617.6,5096
99,40,589.7,5723
99,45,588.6,6510
99,50,567.3,7255
98,55,551.9,7946
98,60,525.4,8669
98,65,532.8,9190
98,70,521.7,10069
98,75,517.6,10862
98,80,522.8,11567
98,85,526.2,12249
98,90,541.6,13163
98,95,543.6,13999
98,100,537.4,14581
98,105,532.0,15186
97,110,548.0,15875
97,115,538.0,16543
97,120,506.0,17042
97,125,491.0,17787
97,130,503.0,18621
97,135,493.0,19175
97,140,486.0,19640
97,145,487.0,20366
97,150,493.0,20905
97,155,486.0,21668
97,160,500.0,22408
96,165,501.0,23122
96,170,516.0,23790
96,175,518.0,24409
96,180,521.0,25199
96,185,522.0,25835
96,190,509.0,26499
96,195,518.0,27115
96,200,528.0,27757
96,205,540.0,28620
96,210,526.0,29260
96,215,534.0,29746
96,220,555.0,30365
95,225,559.0,30978
95,230,562.0,31516
95,235,564.0,32270
95,240,580.0,32827
95,245,582.0,33499
95,250,596.0,34248
95,255,609.0,34739
95,260,608.0,35413
95,265,616.0,35996
95,270,609.0,36601
95,275,603.0,37326
95,280,598.0,37833
94,285,604.0,38493
94,290,594.0,38909
94,295,590.0,39609
94,300,579.0,40132
94,305,574.0,40665
94,310,581.0,41333
94,315,586.0,41799
94,320,562.0,42061
94,325,562.0,42835
94,330,547.0,43460
94,335,558.0,44098
94,340,562.0,44855
94,345,554.0,45570
93,350,551.0,46324
93,355,543.0,46664
93,360,568.0,47434
93,365,563.0,48083
93,370,559.0,48637
93,375,575.0,49429
93,380,593.0,50267
93,385,571.0,50571
93,390,575.0,51199
93,395,588.0,52194
93,400,608.0,52755
93,405,607.0,53531
92,410,604.0,54012
92,415,612.0,54780
92,420,616.0,55247
92,425,623.0,55798
92,430,627.0,56324
92,435,617.0,56894
92,440,616.0,57383
92,445,619.0,58058
92,450,617.0,58635
92,455,632.0,59172
92,460,636.0,59953
92,465,633.0,60657
92,470,643.0,61174
91,475,648.0,62017
91,480,643.0,62652
91,485,658.0,63235
91,490,652.0,63647
91,495,641.0,64382
91,500,632.0,65065
91,505,647.0,65891
91,510,659.0,66542
91,515,654.0,67077
91,520,669.0,67915
91,525,666.0,68657
90,530,678.0,69114
90,535,690.0,69895
90,540,693.0,70623
90,545,697.0,71161
90,550,697.0,71853
90,555,696.0,72571
90,560,659.0,73107
90,565,656.0,73680
90,570,660.0,74233
90,575,646.0,74680
90,580,634.0,75297
90,585,631.0,75923
89,590,661.0,76606
89,595,645.0,77173
89,600,637.0,77709
89,605,636.0,78483
89,610,631.0,79026
89,615,641.0,79851
89,620,631.0,80605
89,625,623.0,80986
89,630,632.0,81635
89,635,620.0,82040
89,640,619.0,82766
89,645,619.0,83287
89,650,624.0,83907
88,655,614.0,84425
88,660,636.0,85117
88,665,648.0,85910
88,670,646.0,86582
88,675,662.0,87177
88,680,690.0,88010
88,685,711.0,88700
88,690,715.0,89361
88,695,738.0,89925
88,700,735.0,90409
88,705,729.0,91095
88,710,749.0,91657
87,715,740.0,92330
87,720,748.0,92842
87,725,754.0,93314
87,730,745.0,93839
87,735,763.0,94599
87,740,756.0,94935
87,745,759.0,95428
87,750,763.0,96052
87,755,774.0,96552
87,760,774.0,97068
87,765,777.0,97938
87,770,788.0,98672
87,775,785.0,99323
86,780,747.0,99623
86,785,744.0,100205
86,790,743.0,100897
86,795,753.0,101566
86,800,780.0,102018
86,805,769.0,102452
86,810,773.0,103275
86,815,775.0,103889
86,820,791.0,104572
86,825,795.0,105134
86,830,803.0,105639
86,835,778.0,106027
86,840,793.0,106455
86,845,794.0,106990
85,850,778.0,107532
85,855,795.0,108397
85,860,802.0,109121
85,865,795.0,109744
85,870,814.0,110653
85,875,808.0,111027
85,880,851.0,112022
85,885,849.0,112617
85,890,841.0,113231
85,895,825.0,113871
85,900,828.0,114440
85,905,815.0,114754
84,910,830.0,115713
84,915,825.0,116232
84,920,821.0,116860
84,925,822.0,117371
84,930,804.0,117671
84,935,842.0,118467
84,940,845.0,119096
84,945,860.0,119757
84,950,866.0,120192
84,955,854.0,120712
84,960,849.0,121126
84,965,850.0,121526
84,970,831.0,122106
83,975,840.0,122630
83,980,820.0,123245
83,985,821.0,123809
83,990,816.0,124366
83,995,824.0,124824
83,1000,814.0,125375
83,1005,841.0,126113
83,1010,814.0,126678
83,1015,824.0,127172
83,1020,796.0,127344
83,1025,781.0,127670
83,1030,819.0,128456
83,1035,817.0,129148
83,1040,809.0,129834
82,1045,807.0,130656
82,1050,822.0,131280
82,1055,839.0,131789
82,1060,838.0,132463
82,1065,829.0,132828
82,1070,807.0,133289
82,1075,809.0,133770
82,1080,820.0,134499
82,1085,827.0,135000
82,1090,831.0,135555
82,1095,840.0,136112
82,1100,835.0,136558
82,1105,846.0,137154
82,1110,839.0,137604
81,1115,859.0,138310
81,1120,886.0,138887
81,1125,900.0,139452
81,1130,881.0,140006
81,1135,874.0,140622
81,1140,865.0,140884
81,1145,842.0,141219
81,1150,834.0,141740
81,1155,832.0,142430
81,1160,830.0,142993
81,1165,839.0,143679
81,1170,846.0,144192
81,1175,860.0,144763
81,1180,852.0,145328
80,1185,852.0,145887
80,1190,869.0,146452
80,1195,866.0,147186
80,1200,869.0,147797
80,1205,834.0,148142
80,1210,845.0,148704
80,1215,813.0,148988
80,1220,808.0,149362
80,1225,822.0,150060
80,1230,824.0,150718
80,1235,834.0,151590
80,1240,853.0,152290
80,1245,872.0,152903
79,1250,880.0,153577
79,1255,881.0,154328
79,1260,916.0,155223
79,1265,911.0,155816
79,1270,911.0,156299
79,1275,909.0,157018
79,1280,930.0,157679
79,1285,930.0,158176
79,1290,914.0,158629
79,1295,920.0,159413
79,1300,908.0,159756
79,1305,936.0,160250
78,1310,954.0,161196
78,1315,979.0,161919
78,1320,1011.0,162664
78,1325,989.0,162950
78,1330,1002.0,163553
78,1335,984.0,164114
78,1340,980.0,164692
78,1345,965.0,165081
78,1350,968.0,165600
78,1355,959.0,166054
78,1360,940.0,166725
78,1365,941.0,167143
78,1370,959.0,167698
78,1375,936.0,168304
77,1380,920.0,168807
77,1385,922.0,169330
77,1390,923.0,169934
77,1395,908.0,170549
77,1400,926.0,171228
77,1405,953.0,171977
77,1410,909.0,172253
77,1415,898.0,172711
77,1420,876.0,173434
77,1425,883.0,173732
77,1430,875.0,174257
77,1435,886.0,174848
77,1440,897.0,175484
76,1445,921.0,176106
76,1450,937.0,176786
76,1455,946.0,177355
76,1460,937.0,177925
76,1465,960.0,178615
76,1470,940.0,178987
76,1475,943.0,179406
76,1480,944.0,179977
76,1485,939.0,180349
76,1490,933.0,180814
76,1495,959.0,181591
76,1500,958.0,182079
76,1505,933.0,182673
76,1510,963.0,183256
75,1515,977.0,184014
75,1520,952.0,184288
75,1525,963.0,185063
75,1530,976.0,185846
75,1535,965.0,186361
75,1540,964.0,187078
75,1545,956.0,187636
75,1550,955.0,188377
75,1555,939.0,188894
75,1560,961.0,189500
75,1565,959.0,190179
75,1570,997.0,190771
75,1575,1010.0,191209
74,1580,1000.0,191578
74,1585,1027.0,192310
74,1590,1032.0,192769
74,1595,1010.0,193313
74,1600,1014.0,193779
74,1605,1038.0,194679
74,1610,1060.0,195393
74,1615,1047.0,195996
74,1620,1096.0,196747
74,1625,1124.0,197562
74,1630,1135.0,198269
74,1635,1143.0,198774
73,1640,1150.0,199423
73,1645,1171.0,200072
73,1650,1142.0,200448
73,1655,1151.0,200942
73,1660,1127.0,201303
73,1665,1119.0,201742
73,1670,1109.0,202437
73,1675,1119.0,203060
73,1680,1135.0,203694
73,1685,1120.0,204325
73,1690,1141.0,204912
73,1695,1163.0,205481
73,1700,1163.0,206048
73,1705,1132.0,206440
72,1710,1116.0,206971
72,1715,1135.0,207714
72,1720,1124.0,208554
72,1725,1107.0,209213
72,1730,1081.0,209698
72,1735,1105.0,210475
72,1740,1113.0,211025
72,1745,1111.0,211564
72,1750,1119.0,212032
72,1755,1125.0,212557
72,1760,1130.0,213058
72,1765,1159.0,213845
71,1770,1165.0,214519
71,1775,1166.0,214941
71,1780,1155.0,215373
71,1785,1134.0,215683
71,1790,1108.0,215921
71,1795,1087.0,216341
71,1800,1082.0,216691
71,1805,1106.0,217443
71,1810,1102.0,217857
71,1815,1097.0,218418
71,1820,1088.0,218940
71,1825,1097.0,219576
71,1830,1114.0,220241
71,1835,1085.0,220778
71,1840,1093.0,221568
70,1845,1091.0,222262
70,1850,1110.0,222900
70,1855,1112.0,223407
70,1860,1136.0,224172
70,1865,1100.0,224571
70,1870,1085.0,225143
70,1875,1101.0,226003
70,1880,1111.0,226585
70,1885,1129.0,227096
70,1890,1174.0,228058
70,1895,1186.0,228717
70,1900,1199.0,229287
69,1905,1197.0,230039
69,1910,1197.0,230542
69,1915,1212.0,231256
69,1920,1215.0,231695
69,1925,1191.0,232052
69,1930,1179.0,232575
69,1935,1192.0,233141
69,1940,1184.0,233857
69,1945,1200.0,234476
69,1950,1173.0,234907
69,1955,1186.0,235626
69,1960,1171.0,236158
69,1965,1181.0,236609
69,1970,1191.0,237237
68,1975,1185.0,237864
68,1980,1190.0,238409
68,1985,1186.0,238904
68,1990,1156.0,239406
68,1995,1116.0,239590
68,2000,1098.0,239981
68,2005,1103.0,240692
68,2010,1106.0,241094
68,2015,1080.0,241505
68,2020,1074.0,242098
68,2025,1107.0,242849
68,2030,1138.0,243650
68,2035,1150.0,244278
68,2040,1145.0,244897
67,2045,1121.0,245434
67,2050,1174.0,246343
67,2055,1153.0,246764
67,2060,1183.0,247543
67,2065,1184.0,247891
67,2070,1188.0,248554
67,2075,1176.0,249158
67,2080,1185.0,249689
67,2085,1195.0,250234
67,2090,1210.0,250845
67,2095,1251.0,251402
67,2100,1275.0,251904
67,2105,1280.0,252513
66,2110,1282.0,253035
66,2115,1273.0,253385
66,2120,1303.0,254086
66,2125,1308.0,254754
66,2130,1284.0,255238
66,2135,1289.0,255898
66,2140,1283.0,256464
66,2145,1252.0,256646
66,2150,1225.0,257143
66,2155,1218.0,257464
66,2160,1194.0,258118
66,2165,1225.0,258837
66,2170,1241.0,259558
65,2175,1255.0,260263
65,2180,1258.0,261084
65,2185,1259.0,261618
65,2190,1257.0,262231
65,2195,1280.0,262982
65,2200,1271.0,263348
65,2205,1275.0,264063
65,2210,1282.0,264673
65,2215,1317.0,265346
65,2220,1280.0,265705
65,2225,1260.0,266218
65,2230,1288.0,266960
65,2235,1277.0,267499
64,2240,1282.0,267968
64,2245,1320.0,268463
64,2250,1338.0,269301
64,2255,1364.0,269931
64,2260,1388.0,270826
64,2265,1355.0,271192
64,2270,1335.0,271792
64,2275,1307.0,272058
64,2280,1297.0,272632
64,2285,1287.0,273037
64,2290,1305.0,273665
64,2295,1278.0,274183
64,2300,1331.0,275178
63,2305,1293.0,275547
63,2310,1295.0,276113
63,2315,1286.0,276624
63,2320,1327.0,277352
63,2325,1306.0,277638
63,2330,1297.0,278454
63,2335,1321.0,279327
63,2340,1301.0,279658
63,2345,1335.0,280495
63,2350,1342.0,281344
63,2355,1342.0,281951
63,2360,1306.0,282511
63,2365,1322.0,282988
62,2370,1333.0,283606
62,2375,1368.0,284228
62,2380,1369.0,284781
62,2385,1406.0,285494
62,2390,1399.0,286128
62,2395,1420.0,286883
62,2400,1372.0,287368
62,2405,1382.0,287833
62,2410,1366.0,288284
62,2415,1343.0,288592
62,2420,1339.0,289250
62,2425,1373.0,290087
62,2430,1365.0,290699
61,2435,1320.0,291028
61,2440,1332.0,291376
61,2445,1316.0,292073
61,2450,1307.0,292918
61,2455,1310.0,293527
61,2460,1325.0,294131
61,2465,1322.0,294582
61,2470,1349.0,295468
61,2475,1341.0,296128
61,2480,1344.0,296704
61,2485,1357.0,297494
61,2490,1351.0,298035
60,2495,1359.0,298728
60,2500,1376.0,299356
60,2505,1376.0,299759
60,2510,1390.0,300270
60,2515,1414.0,300771
60,2520,1414.0,301329
60,2525,1436.0,302155
60,2530,1421.0,302591
60,2535,1432.0,302990
60,2540,1459.0,303666
60,2545,1440.0,304197
60,2550,1459.0,305032
60,2555,1454.0,305573
60,2560,1450.0,306036
59,2565,1454.0,306558
59,2570,1423.0,307125
59,2575,1410.0,307449
59,2580,1421.0,308109
59,2585,1404.0,308907
59,2590,1394.0,309384
59,2595,1361.0,309688
59,2600,1379.0,310423
59,2605,1397.0,310961
59,2610,1389.0,311414
59,2615,1373.0,311849
59,2620,1370.0,312586
59,2625,1330.0,312955
59,2630,1364.0,313676
58,2635,1366.0,314236
58,2640,1347.0,314739
58,2645,1357.0,315312
58,2650,1335.0,315969
58,2655,1360.0,316560
58,2660,1372.0,317200
58,2665,1368.0,317637
58,2670,1379.0,318364
58,2675,1397.0,319026
58,2680,1400.0,319795
58,2685,1406.0,320540
58,2690,1424.0,321208
57,2695,1416.0,321561
57,2700,1406.0,322229
57,2705,1422.0,322920
57,2710,1468.0,323770
57,2715,1525.0,324728
57,2720,1511.0,325204
57,2725,1546.0,325961
57,2730,1528.0,326443
57,2735,1512.0,326709
57,2740,1541.0,327438
57,2745,1545.0,328030
57,2750,1544.0,328605
56,2755,1526.0,329246
56,2760,1557.0,330208
56,2765,1564.0,330657
56,2770,1557.0,331203
56,2775,1535.0,331578
56,2780,1521.0,332229
56,2785,1500.0,332698
56,2790,1505.0,333479
56,2795,1553.0,334138
56,2800,1533.0,334583
56,2805,1519.0,335034
56,2810,1501.0,335608
56,2815,1440.0,335916
56,2820,1453.0,336528
55,2825,1464.0,337374
55,2830,1465.0,338008
55,2835,1527.0,338828
55,2840,1517.0,339410
55,2845,1498.0,339875
55,2850,1510.0,340493
55,2855,1510.0,340977
55,2860,1469.0,341688
55,2865,1470.0,342210
55,2870,1495.0,343043
55,2875,1504.0,343563
55,2880,1507.0,344105
54,2885,1500.0,344593
54,2890,1498.0,345191
54,2895,1474.0,345640
54,2900,1482.0,346188
54,2905,1528.0,346999
54,2910,1509.0,347490
54,2915,1533.0,347978
54,2920,1539.0,348618
54,2925,1516.0,349130
54,2930,1531.0,349783
54,2935,1531.0,350629
54,2940,1534.0,351293
54,2945,1568.0,351990
53,2950,1558.0,352601
53,2955,1582.0,353321
53,2960,1602.0,354126
53,2965,1596.0,354636
53,2970,1587.0,355245
53,2975,1602.0,355962
53,2980,1579.0,356464
53,2985,1605.0,357267
53,2990,1604.0,357982
53,2995,1621.0,358637
53,3000,1632.0,359408
52,3005,1573.0,359887
52,3010,1607.0,360786
52,3015,1595.0,361106
52,3020,1573.0,361670
52,3025,1573.0,362272
52,3030,1569.0,362902
52,3035,1551.0,363605
52,3040,1545.0,364234
52,3045,1560.0,365036
52,3050,1550.0,365564
52,3055,1522.0,366058
52,3060,1514.0,366686
51,3065,1528.0,367351
51,3070,1493.0,367692
51,3075,1495.0,368242
51,3080,1496.0,368659
51,3085,1471.0,369113
51,3090,1477.0,369662
51,3095,1485.0,370432
51,3100,1495.0,371129
51,3105,1548.0,372051
51,3110,1516.0,372578
51,3115,1540.0,373204
51,3120,1598.0,374026
51,3125,1590.0,374491
51,3130,1567.0,374963
50,3135,1564.0,375517
50,3140,1581.0,376331
50,3145,1567.0,377029
50,3150,1590.0,377663
50,3155,1641.0,378641
50,3160,1648.0,379174
50,3165,1665.0,379839
50,3170,1726.0,380505
50,3175,1752.0,381373
50,3180,1782.0,381829
50,3185,1797.0,382296
49,3190,1802.0,383055
49,3195,1778.0,383560
49,3200,1766.0,384107
49,3205,1753.0,384858
49,3210,1782.0,385668
49,3215,1778.0,386232
49,3220,1741.0,386907
49,3225,1767.0,387658
49,3230,1760.0,388017
49,3235,1774.0,388762
49,3240,1768.0,389399
49,3245,1775.0,390164
48,3250,1739.0,390515
48,3255,1688.0,391109
48,3260,1691.0,391717
48,3265,1666.0,392232
48,3270,1696.0,393227
48,3275,1683.0,393966
48,3280,1696.0,394488
48,3285,1692.0,394969
48,3290,1656.0,395261
48,3295,1669.0,395805
48,3300,1662.0,396347
48,3305,1640.0,396782
48,3310,1630.0,397422
47,3315,1665.0,398165
47,3320,1628.0,398387
47,3325,1634.0,399079
47,3330,1696.0,399828
47,3335,1683.0,400358
47,3340,1685.0,401035
47,3345,1707.0,401991
47,3350,1725.0,402491
47,3355,1746.0,403076
47,3360,1758.0,403728
47,3365,1781.0,404415
47,3370,1709.0,404841
46,3375,1725.0,405701
46,3380,1739.0,406444
46,3385,1745.0,406895
46,3390,1752.0,407358
46,3395,1746.0,407922
46,3400,1780.0,408527
46,3405,1818.0,409348
46,3410,1840.0,410089
46,3415,1809.0,410584
46,3420,1892.0,411492
46,3425,1859.0,411996
46,3430,1853.0,412811
45,3435,1856.0,413524
45,3440,1870.0,414343
45,3445,1857.0,415114
45,3450,1849.0,415598
45,3455,1879.0,416339
45,3460,1843.0,416736
45,3465,1843.0,417346
45,3470,1873.0,417929
45,3475,1855.0,418434
45,3480,1837.0,419115
45,3485,1831.0,419667
45,3490,1894.0,420537
44,3495,1884.0,421055
44,3500,1844.0,421501
44,3505,1831.0,422384
44,3510,1787.0,422791
44,3515,1787.0,423438
44,3520,1741.0,423911
44,3525,1741.0,424429
44,3530,1718.0,425051
44,3535,1682.0,425305
44,3540,1678.0,425938
44,3545,1699.0,426756
44,3550,1729.0,427586
44,3555,1707.0,428271
43,3560,1750.0,429039
43,3565,1744.0,429583
43,3570,1749.0,430405
43,3575,1750.0,431036
43,3580,1735.0,431634
43,3585,1765.0,432324
43,3590,1740.0,433023
43,3595,1761.0,433621
43,3600,1809.0,434328
43,3605,1813.0,435073
43,3610,1852.0,435745
42,3615,1860.0,436337
42,3620,1873.0,436965
42,3625,1922.0,437653
42,3630,1944.0,438315
42,3635,2013.0,439147
42,3640,1999.0,439780
42,3645,1976.0,440380
42,3650,1998.0,441129
42,3655,1969.0,441483
42,3660,1948.0,441889
42,3665,1961.0,442482
42,3670,1982.0,443412
41,3675,1990.0,444073
41,3680,1996.0,444557
41,3685,2017.0,445309
41,3690,2026.0,445988
41,3695,2055.0,446824
41,3700,2032.0,447382
41,3705,1980.0,447711
41,3710,1955.0,448158
41,3715,1938.0,448640
41,3720,1924.0,449037
41,3725,1944.0,449878
41,3730,1949.0,450568
41,3735,1922.0,451156
40,3740,1943.0,451856
40,3745,2002.0,452851
40,3750,1999.0,453548
40,3755,2039.0,454258
40,3760,2036.0,454775
40,3765,2010.0,455177
40,3770,2007.0,455903
40,3775,2014.0,456663
40,3780,2039.0,457296
40,3785,1998.0,457861
40,3790,2032.0,458849
39,3795,2061.0,459787
39,3800,2083.0,460590
39,3805,2161.0,461436
39,3810,2199.0,462249
39,3815,2245.0,463067
39,3820,2266.0,463824
39,3825,2181.0,464114
39,3830,2197.0,464822
39,3835,2185.0,465348
39,3840,2167.0,465908
39,3845,2102.0,466496
39,3850,2044.0,466742
38,3855,2031.0,467414
38,3860,2050.0,468146
38,3865,2085.0,468740
38,3870,2092.0,469472
38,3875,2080.0,469990
38,3880,2088.0,470634
38,3885,2123.0,471488
38,3890,2100.0,472141
38,3895,2069.0,472968
38,3900,2078.0,473673
38,3905,2045.0,474209
37,3910,2077.0,475204
37,3915,2087.0,475878
37,3920,2099.0,476544
37,3925,2107.0,476810
37,3930,2097.0,477594
37,3935,2138.0,478294
37,3940,2149.0,478860
37,3945,2180.0,479723
37,3950,2243.0,480576
37,3955,2263.0,481351
37,3960,2279.0,482140
36,3965,2280.0,482820
36,3970,2286.0,483776
36,3975,2289.0,484410
36,3980,2242.0,484736
36,3985,2222.0,485318
36,3990,2208.0,485940
36,3995,2217.0,486667
36,4000,2215.0,487427
36,4005,2281.0,488334
36,4010,2239.0,488983
35,4015,2246.0,489884
35,4020,2256.0,490624
35,4025,2304.0,491382
35,4030,2305.0,492035
35,4035,2324.0,492927
35,4040,2355.0,493833
35,4045,2332.0,494331
35,4050,2334.0,495179
35,4055,2334.0,495872
35,4060,2344.0,496462
35,4065,2343.0,497166
34,4070,2291.0,497654
34,4075,2312.0,498445
34,4080,2369.0,499133
34,4085,2365.0,499691
34,4090,2326.0,500175
34,4095,2320.0,500647
34,4100,2313.0,501295
34,4105,2232.0,501782
34,4110,2274.0,502681
34,4115,2240.0,503306
34,4120,2184.0,503703
34,4125,2187.0,504383
34,4130,2142.0,504805
33,4135,2105.0,505533
33,4140,2067.0,505980
33,4145,2028.0,506340
33,4150,2061.0,507257
33,4155,2083.0,507993
33,4160,2074.0,508787
33,4165,2099.0,509600
33,4170,2167.0,510430
33,4175,2166.0,511162
33,4180,2160.0,511740
33,4185,2201.0,512613
32,4190,2250.0,513334
32,4195,2259.0,514127
32,4200,2247.0,514788
32,4205,2297.0,515590
32,4210,2260.0,516264
32,4215,2294.0,517198
32,4220,2362.0,518011
32,4225,2349.0,518658
32,4230,2345.0,519059
32,4235,2362.0,519730
32,4240,2372.0,520255
31,4245,2398.0,520814
31,4250,2370.0,521613
31,4255,2349.0,522252
31,4260,2323.0,522751
31,4265,2316.0,523513
31,4270,2287.0,524254
31,4275,2277.0,524841
31,4280,2318.0,525642
31,4285,2325.0,526509
31,4290,2327.0,527082
31,4295,2316.0,527696
30,4300,2346.0,528462
30,4305,2330.0,529079
30,4310,2347.0,529876
30,4315,2335.0,530504
30,4320,2341.0,531239
30,4325,2354.0,531912
30,4330,2411.0,532572
30,4335,2385.0,533140
30,4340,2312.0,533248
30,4345,2303.0,533691
30,4350,2292.0,534454
30,4355,2287.0,534996
29,4360,2364.0,535762
29,4365,2361.0,536561
29,4370,2386.0,537377
29,4375,2383.0,537935
29,4380,2357.0,538564
29,4385,2341.0,539247
29,4390,2363.0,540036
29,4395,2370.0,540853
29,4400,2362.0,541640
29,4405,2331.0,542061
29,4410,2340.0,542847
28,4415,2370.0,543703
28,4420,2342.0,544353
28,4425,2369.0,545254
28,4430,2349.0,545906
28,4435,2396.0,546599
28,4440,2508.0,547450
28,4445,2558.0,548163
28,4450,2577.0,548844
28,4455,2591.0,549488
28,4460,2553.0,550262
27,4465,2570.0,551071
27,4470,2544.0,551767
27,4475,2526.0,552341
27,4480,2528.0,553197
27,4485,2542.0,554189
27,4490,2532.0,554778
27,4495,2552.0,555593
27,4500,2580.0,556551
27,4505,2655.0,557472
27,4510,2604.0,557895
27,4515,2562.0,558469
26,4520,2593.0,559274
26,4525,2546.0,559708
26,4530,2580.0,560417
26,4535,2573.0,561198
26,4540,2562.0,561977
26,4545,2507.0,562344
26,4550,2489.0,563018
26,4555,2517.0,563895
26,4560,2522.0,564554
26,4565,2492.0,565188
26,4570,2495.0,565700
25,4575,2533.0,566508
25,4580,2503.0,567156
25,4585,2496.0,567941
25,4590,2491.0,568626
25,4595,2475.0,569322
25,4600,2429.0,569832
25,4605,2425.0,570731
25,4610,2482.0,571326
25,4615,2502.0,572241
25,4620,2500.0,573068
25,4625,2486.0,573668
24,4630,2497.0,574587
24,4635,2503.0,575529
24,4640,2524.0,576448
24,4645,2569.0,577056
24,4650,2600.0,577800
24,4655,2588.0,578460
24,4660,2574.0,579147
24,4665,2603.0,579892
24,4670,2599.0,580554
24,4675,2580.0,581222
23,4680,2607.0,581981
23,4685,2563.0,582387
23,4690,2578.0,583156
23,4695,2557.0,583776
23,4700,2564.0,584425
23,4705,2544.0,585298
23,4710,2519.0,585756
23,4715,2519.0,586442
23,4720,2517.0,587143
23,4725,2541.0,587639
23,4730,2533.0,588388
22,4735,2562.0,589314
22,4740,2568.0,590079
22,4745,2562.0,590586
22,4750,2553.0,591251
22,4755,2573.0,592084
22,4760,2590.0,592974
22,4765,2601.0,593744
22,4770,2610.0,594395
22,4775,2665.0,595330
22,4780,2674.0,596009
22,4785,2747.0,596850
21,4790,2770.0,597665
21,4795,2789.0,598282
21,4800,2844.0,599144
21,4805,2865.0,599860
21,4810,2920.0,600710
21,4815,2965.0,601568
21,4820,2969.0,602266
21,4825,3016.0,602968
21,4830,3024.0,603739
21,4835,3031.0,604541
20,4840,3004.0,605263
20,4845,3016.0,605971
20,4850,3065.0,606737
20,4855,3054.0,607540
20,4860,3013.0,608073
20,4865,3024.0,608964
20,4870,3029.0,609601
20,4875,3026.0,610468
20,4880,2998.0,611007
20,4885,2978.0,611850
19,4890,2922.0,612440
19,4895,2939.0,613029
19,4900,2951.0,613781
19,4905,2929.0,614413
19,4910,2908.0,615395
19,4915,2873.0,616333
19,4920,2841.0,616923
19,4925,2811.0,617543
19,4930,2792.0,618336
19,4935,2765.0,619212
18,4940,2786.0,620111
18,4945,2824.0,621050
18,4950,2752.0,621625
18,4955,2735.0,622236
18,4960,2783.0,623049
18,4965,2757.0,623887
18,4970,2749.0,624535
18,4975,2736.0,625314
18,4980,2775.0,626242
18,4985,2791.0,627096
17,4990,2827.0,627691
17,4995,2835.0,628480
17,5000,2773.0,629093
17,5005,2824.0,629843
17,5010,2818.0,630752
17,5015,2828.0,631451
17,5020,2888.0,632303
17,5025,2887.0,632764
17,5030,2883.0,633385
17,5035,2873.0,634127
17,5040,2869.0,635006
16,5045,2851.0,635828
16,5050,2853.0,636391
16,5055,2884.0,637195
16,5060,2885.0,637944
16,5065,2935.0,638714
16,5070,2969.0,639600
16,5075,2979.0,640464
16,5080,2975.0,641401
16,5085,2964.0,642246
15,5090,2975.0,642934
15,5095,3014.0,643802
15,5100,3028.0,644485
15,5105,2977.0,645082
15,5110,2980.0,645802
15,5115,2991.0,646644
15,5120,2982.0,647381
15,5125,3008.0,648202
15,5130,3055.0,649025
15,5135,3088.0,649877
15,5140,3060.0,650400
14,5145,3068.0,651188
14,5150,3138.0,652044
14,5155,3156.0,652837
14,5160,3173.0,653531
14,5165,3104.0,654112
14,5170,3123.0,655043
14,5175,3130.0,655794
14,5180,3103.0,656451
14,5185,3134.0,657212
14,5190,3124.0,657813
13,5195,3093.0,658597
13,5200,3113.0,659279
13,5205,3119.0,659950
13,5210,3152.0,660649
13,5215,3133.0,661509
13,5220,3120.0,662236
13,5225,3130.0,662973
13,5230,3117.0,663968
13,5235,3132.0,664838
13,5240,3151.0,665568
12,5245,3166.0,666333
12,5250,3132.0,667035
12,5255,3108.0,667794
12,5260,3120.0,668617
12,5265,3166.0,669412
12,5270,3151.0,670281
12,5275,3140.0,670907
12,5280,3171.0,671740
12,5285,3157.0,672459
12,5290,3188.0,673388
11,5295,3161.0,674036
11,5300,3171.0,674824
11,5305,3152.0,675498
11,5310,3129.0,676454
11,5315,3138.0,677124
11,5320,3167.0,677984
11,5325,3170.0,678795
11,5330,3174.0,679660
11,5335,3170.0,680491
10,5340,3207.0,681449
10,5345,3180.0,682235
10,5350,3203.0,683125
10,5355,3212.0,683868
10,5360,3197.0,684561
10,5365,3156.0,685338
10,5370,3170.0,686264
10,5375,3174.0,686850
10,5380,3203.0,687646
10,5385,3201.0,688428
9,5390,3171.0,689161
9,5395,3191.0,689893
9,5400,3186.0,690760
9,5405,3232.0,691499
9,5410,3247.0,692354
9,5415,3267.0,693072
9,5420,3219.0,693675
9,5425,3225.0,694322
9,5430,3233.0,695135
9,5435,3226.0,696011
8,5440,3194.0,696830
8,5445,3242.0,697628
8,5450,3208.0,698148
8,5455,3208.0,699035
8,5460,3192.0,699720
8,5465,3232.0,700398
8,5470,3203.0,700991
8,5475,3225.0,701841
8,5480,3225.0,702679
8,5485,3194.0,703248
8,5490,3205.0,704000
7,5495,3244.0,704898
7,5500,3261.0,705820
7,5505,3246.0,706503
7,5510,3271.0,707218
7,5515,3293.0,707992
7,5520,3356.0,708836
7,5525,3391.0,709570
7,5530,3375.0,710033
7,5535,3360.0,710613
7,5540,3365.0,711520
6,5545,3353.0,712316
6,5550,3370.0,712901
6,5555,3368.0,713623
6,5560,3373.0,714158
6,5565,3399.0,714979
6,5570,3405.0,715737
6,5575,3418.0,716507
6,5580,3442.0,717174
6,5585,3496.0,717929
6,5590,3541.0,718620
6,5595,3539.0,719190
5,5600,3557.0,719880
5,5605,3578.0,720433
5,5610,3569.0,721279
5,5615,3574.0,721946
5,5620,3548.0,722553
5,5625,3536.0,723319
5,5630,3581.0,724029
5,5635,3608.0,724833
5,5640,3636.0,725601
5,5645,3646.0,726292
5,5650,3652.0,726919
4,5655,3685.0,727582
4,5660,3725.0,728322
4,5665,3704.0,729046
4,5670,3740.0,729870
4,5675,3713.0,730628
4,5680,3707.0,731319
4,5685,3710.0,732068
4,5690,3713.0,732689
4,5695,3720.0,733530
4,5700,3729.0,734217
3,5705,3756.0,734813
3,5710,3762.0,735574
3,5715,3715.0,736295
3,5720,3754.0,736916
3,5725,3771.0,737532
3,5730,3769.0,738204
3,5735,3784.0,738815
3,5740,3807.0,739503
3,5745,3744.0,739975
3,5750,3778.0,740664
3,5755,3772.0,741578
3,5760,3785.0,742274
2,5765,3802.0,742920
2,5770,3814.0,743542
2,5775,3824.0,744116
2,5780,3827.0,744870
2,5785,3837.0,745562
2,5790,3834.0,746346
2,5795,3843.0,746929
2,5800,3838.0,747843
2,5805,3824.0,748610
2,5810,3833.0,749213
2,5815,3885.0,749814
2,5820,3875.0,750574
2,5825,3877.0,751180
2,5830,3879.0,751866
2,5835,3867.0,752406
2,5840,3831.0,752993
2,5845,3847.0,753424
2,5850,3846.0,754097
2,5855,3835.0,754847
2,5860,3826.0,755492
2,5865,3831.0,756328
2,5870,3796.0,756988
2,5875,3810.0,757738
2,5880,3810.0,758650
2,5885,3811.0,759330
2,5890,3770.0,760003
2,5895,3740.0,760509
2,5900,3749.0,761099
2,5905,3741.0,761700
2,5910,3740.0,762376
2,5915,3730.0,763215
2,5920,3740.0,763814
2,5925,3734.0,764486
2,5930,3735.0,765170
2,5935,3750.0,765764
2,5940,3788.0,766519
2,5945,3845.0,767276
2,5950,3850.0,768032
2,5955,3873.0,768709
2,5960,3877.0,769436
2,5965,3875.0,770324
2,5970,3904.0,771239
2,5975,3847.0,771685
2,5980,3849.0,772370
2,5985,3852.0,772959
2,5990,3897.0,773565
2,5995,3920.0,774329
2,6000,3921.0,774919
2,6005,3945.0,775507
2,6010,3935.0,776338
2,6015,3941.0,776928
2,6020,3933.0,777609
2,6025,3905.0,778271
2,6030,3898.0,779030
2,6035,3887.0,779704
2,6040,3844.0,780451
2,6045,3830.0,781075
2,6050,3832.0,781769
2,6055,3808.0,782377
2,6060,3787.0,782894
2,6065,3778.0,783539
2,6070,3777.0,784456
2,6075,3839.0,785336
2,6080,3841.0,785936
2,6085,3808.0,786553
2,6090,3809.0,787276
2,6095,3812.0,787931
2,6100,3812.0,788595
2,6105,3768.0,789274
2,6110,3778.0,789990
2,6115,3780.0,790670
2,6120,3786.0,791262
2,6125,3818.0,791899
2,6130,3798.0,792499
2,6135,3791.0,793128
2,6140,3834.0,793767
2,6145,3849.0,794430
2,6150,3839.0,795139
2,6155,3835.0,795728
2,6160,3831.0,796354
2,6165,3827.0,796952
2,6170,3818.0,797658
2,6175,3805.0,798260
2,6180,3804.0,799014
2,6185,3826.0,799721
2,6190,3799.0,800241
2,6195,3802.0,800894
2,6200,3774.0,801497
2,6205,3816.0,802088
2,6210,3813.0,802747
2,6215,3816.0,803336
2,6220,3817.0,804015
2,6225,3815.0,804713
2,6230,3791.0,805153
2,6235,3761.0,805725
2,6240,3762.0,806313
2,6245,3760.0,806986
2,6250,3764.0,807739
2,6255,3762.0,808278
2,6260,3785.0,808877
2,6265,3815.0,809566
2,6270,3823.0,810262
2,6275,3849.0,810871
2,6280,3841.0,811628
2,6285,3850.0,812402
2,6290,3877.0,812991
2,6295,3878.0,813670
2,6300,3906.0,814257
2,6305,3908.0,814866
2,6310,3911.0,815531
2,6315,3909.0,816232
2,6320,3909.0,816882
2,6325,3896.0,817454
2,6330,3945.0,818138
2,6335,3992.0,818753
2,6340,3983.0,819507
2,6345,3978.0,820109
2,6350,3929.0,820552
2,6355,3961.0,821163
2,6360,3940.0,821677
2,6365,3941.0,822277
2,6370,3943.0,822966
2,6375,3925.0,823655
2,6380,3927.0,824392
2,6385,3897.0,824980
2,6390,3867.0,825559
2,6395,3868.0,826159
2,6400,3854.0,826905
2,6405,3854.0,827507
2,6410,3853.0,828115
2,6415,3854.0,828711
2,6420,3832.0,829310
2,6425,3848.0,830004
2,6430,3851.0,830596
2,6435,3813.0,831086
2,6440,3810.0,831793
2,6445,3817.0,832401
2,6450,3813.0,832821
2,6455,3813.0,833412
2,6460,3844.0,834011
2,6465,3843.0,834686
2,6470,3845.0,835459
2,6475,3834.0,835973
2,6480,3843.0,836567
2,6485,3871.0,837301
2,6490,3899.0,837972
2,6495,3900.0,838575
2,6500,3914.0,839170
2,6505,3910.0,839855
2,6510,3909.0,840521
2,6515,3910.0,841120
2,6520,3902.0,841656
2,6525,3901.0,842321
2,6530,3902.0,842914
2,6535,3936.0,843685
2,6540,3919.0,844193
2,6545,3921.0,844793
2,6550,3964.0,845352
2,6555,3960.0,846105
2,6560,3958.0,846778
2,6565,3959.0,847374
2,6570,3917.0,847911
2,6575,3945.0,848512
2,6580,3942.0,849211
2,6585,3942.0,849967
2,6590,3938.0,850644
2,6595,3938.0,851243
2,6600,3936.0,851834
2,6605,3939.0,852517
2,6610,3933.0,853355
2,6615,3923.0,854111
2,6620,3953.0,854794
2,6625,3952.0,855490
2,6630,3926.0,856189
2,6635,3873.0,856621
2,6640,3842.0,857124
2,6645,3840.0,857723
2,6650,3825.0,858323
2,6655,3828.0,858923
2,6660,3830.0,859516
2,6665,3829.0,860111
2,6670,3877.0,860710
2,6675,3877.0,861393
2,6680,3870.0,862194
2,6685,3870.0,862943
2,6690,3869.0,863707
2,6695,3869.0,864305
2,6700,3870.0,864995
2,6705,3869.0,865601
2,6710,3878.0,866198
2,6715,3887.0,866786
2,6720,3888.0,867368
2,6725,3890.0,868048
2,6730,3912.0,868806
2,6735,3968.0,869471
2,6740,4026.0,870137
2,6745,4026.0,870816
2,6750,4057.0,871405
2,6755,4055.0,872081
2,6760,4044.0,872753
2,6765,4044.0,873350
2,6770,4037.0,874021
2,6775,4037.0,874657
2,6780,4047.0,875260
2,6785,4049.0,875869
2,6790,4054.0,876505
2,6795,4051.0,877126
2,6800,4052.0,877741
2,6805,4051.0,878423
2,6810,4050.0,879102
2,6815,4051.0,879767
2,6820,4051.0,880358
2,6825,4040.0,880917
2,6830,4042.0,881588
2,6835,4012.0,882173
2,6840,4013.0,882770
2,6845,4015.0,883374
2,6850,4016.0,883976
2,6855,4018.0,884574
2,6860,4009.0,885112
2,6865,4007.0,885784
2,6870,4013.0,886467
2,6875,4014.0,887060
2,6880,4001.0,887799
2,6885,3995.0,888477
2,6890,3995.0,889151
2,6895,3962.0,889729
2,6900,3953.0,890403
2,6905,3941.0,890941
2,6910,3942.0,891537
2,6915,3934.0,892323
2,6920,3931.0,892916
2,6925,3941.0,893511
2,6930,3943.0,894119
2,6935,3959.0,894812
2,6940,3953.0,895487
2,6945,3953.0,896100
2,6950,3950.0,896782
2,6955,3947.0,897383
2,6960,3939.0,898004
2,6965,3942.0,898613
2,6970,3942.0,899285
2,6975,3940.0,899901
2,6980,3953.0,900503
2,6985,3961.0,901100
2,6990,3964.0,901691
2,6995,3995.0,902374
2,7000,3988.0,903046
2,7005,3993.0,903726
2,7010,3992.0,904403
2,7015,3992.0,905117
2,7020,3995.0,905709
2,7025,3986.0,906399
2,7030,3980.0,907078
2,7035,3996.0,907676
2,7040,3998.0,908347
2,7045,3995.0,908943
2,7050,3997.0,909582
2,7055,3998.0,910272
2,7060,4013.0,910974
2,7065,4000.0,911533
2,7070,4001.0,912122
2,7075,3969.0,912714
2,7080,3968.0,913309
2,7085,3967.0,913906
2,7090,3967.0,914517
2,7095,3952.0,915202
2,7100,3967.0,915803
2,7105,3956.0,916344
2,7110,3950.0,917021
2,7115,3953.0,917658
2,7120,3946.0,918343
2,7125,3957.0,918937
2,7130,3962.0,919573
2,7135,3955.0,920163
2,7140,3950.0,920841
2,7145,3949.0,921461
2,7150,3902.0,921927
2,7155,3875.0,922424
2,7160,3877.0,923108
2,7165,3852.0,923612
2,7170,3851.0,924287
2,7175,3881.0,924884
2,7180,3864.0,925565
2,7185,3864.0,926180
2,7190,3859.0,926860
2,7195,3866.0,927416
2,7200,3863.0,928111
2,7205,3883.0,928791
2,7210,3873.0,929336
2,7215,3873.0,929937
2,7220,3864.0,930493
2,7225,3862.0,931164
2,7230,3856.0,931841
2,7235,3859.0,932519
2,7240,3869.0,933121
2,7245,3869.0,933735
2,7250,3917.0,934333
2,7255,3946.0,934937
2,7260,3957.0,935539
2,7265,3994.0,936138
2,7270,3992.0,936763
2,7275,3993.0,937449
2,7280,4011.0,938059
2,7285,4012.0,938671
2,7290,4016.0,939260
2,7295,4011.0,939932
2,7300,4013.0,940534
2,7305,4004.0,941277
2,7310,4020.0,941865
2,7315,4021.0,942541
2,7320,4027.0,943211
2,7325,4029.0,943800
2,7330,4027.0,944478
2,7335,4014.0,945149
2,7340,4015.0,945747
2,7345,4007.0,946316
2,7350,4003.0,946989
2,7355,3972.0,947675
2,7360,3967.0,948319
2,7365,3947.0,948863
2,7370,3948.0,949533
2,7375,3950.0,950128
2,7380,3932.0,950686
2,7385,3932.0,951288
2,7390,3933.0,951884
2,7395,3950.0,952483
2,7400,3951.0,953087
2,7405,3960.0,953686
2,7410,3955.0,954363
2,7415,3950.0,955125
2,7420,3958.0,955732
2,7425,3956.0,956414
2,7430,3959.0,957094
2,7435,3974.0,957685
2,7440,3973.0,958279
2,7445,3981.0,958963
2,7450,3983.0,959636
2,7455,4015.0,960234
2,7460,4010.0,960912
2,7465,4030.0,961505
2,7470,4030.0,962109
2,7475,4031.0,962699
2,7480,4049.0,963283
2,7485,4048.0,963873
2,7490,4025.0,964388
2,7495,4026.0,964990
2,7500,4025.0,965583
2,7505,4026.0,966173
2,7510,4029.0,966842
2,7515,4037.0,967457
2,7520,4037.0,968062
2,7525,4027.0,968796
2,7530,4028.0,969475
2,7535,4026.0,970136
2,7540,4020.0,970813
2,7545,4023.0,971414
2,7550,4023.0,972102
2,7555,4015.0,972768
2,7560,4023.0,973376
2,7565,4023.0,973984
2,7570,4020.0,974663
2,7575,4017.0,975344
2,7580,4010.0,976020
2,7585,4010.0,976621
2,7590,4021.0,977282
2,7595,4012.0,978040
2,7600,4010.0,978639
2,7605,4008.0,979396
2,7610,4011.0,979992
2,7615,4007.0,980656
2,7620,3992.0,981382
2,7625,4003.0,982053
2,7630,4005.0,982808
2,7635,4008.0,983398
2,7640,4015.0,983986
2,7645,4015.0,984583
2,7650,4017.0,985179
2,7655,4024.0,985773
2,7660,4026.0,986370
2,7665,4027.0,986965
2,7670,4031.0,987562
2,7675,4015.0,988106
2,7680,4022.0,988703
2,7685,4021.0,989403
2,7690,4026.0,990075
2,7695,4030.0,990759
2,7700,4034.0,991406
2,7705,4032.0,992166
2,7710,4030.0,992768
2,7715,4034.0,993443
2,7720,4051.0,994047
2,7725,4049.0,994730
2,7730,4049.0,995326
2,7735,4050.0,995952
2,7740,4033.0,996515
2,7745,4034.0,997120
2,7750,4033.0,997811
2,7755,4032.0,998406
2,7760,4031.0,999001
2,7765,4001.0,999504
2,7770,4002.0,1000094
2,7775,4020.0,1000700
2,7780,4018.0,1001379
2,7785,4020.0,1001969
2,7790,4027.0,1002565
2,7795,4029.0,1003169
2,7800,4028.0,1003766
2,7805,4016.0,1004313
2,7810,4017.0,1004899
2,7815,4018.0,1005502
2,7820,4018.0,1006105
2,7825,3968.0,1006570
2,7830,3963.0,1007287
2,7835,3962.0,1007898
2,7840,3978.0,1008487
2,7845,3978.0,1009083
2,7850,3979.0,1009689
2,7855,3978.0,1010300
2,7860,3977.0,1010985
2,7865,4001.0,1011580
2,7870,3999.0,1012181
2,7875,3998.0,1012788
2,7880,3998.0,1013463
2,7885,3997.0,1014143
2,7890,3997.0,1014736
2,7895,3999.0,1015344
2,7900,3999.0,1015940
2,7905,4014.0,1016607
2,7910,4007.0,1017309
2,7915,3995.0,1017865
2,7920,3989.0,1018616
2,7925,4041.0,1019270
2,7930,4049.0,1019891
2,7935,4049.0,1020489
2,7940,4050.0,1021108
2,7945,4047.0,1021703
2,7950,4047.0,1022299
2,7955,4027.0,1022954
2,7960,4015.0,1023703
2,7965,4020.0,1024386
2,7970,4022.0,1024996
2,7975,4021.0,1025679
2,7980,4019.0,1026282
2,7985,3986.0,1026959
2,7990,3983.0,1027558
2,7995,3983.0,1028157
2,8000,3982.0,1028845
2,8005,3983.0,1029514
2,8010,3990.0,1030108
2,8015,4000.0,1030787
2,8020,4005.0,1031471
2,8025,4005.0,1032076
2,8030,4004.0,1032678
2,8035,3989.0,1033220
2,8040,3989.0,1033828
2,8045,3991.0,1034415
2,8050,3984.0,1035088
2,8055,4007.0,1035684
2,8060,4015.0,1036374
2,8065,4016.0,1036972
2,8070,4015.0,1037577
2,8075,4017.0,1038184
2,8080,4020.0,1038800
2,8085,4042.0,1039483
2,8090,4044.0,1040086
2,8095,4037.0,1040719
2,8100,4039.0,1041315
2,8105,4040.0,1041917
2,8110,4038.0,1042526
2,8115,4029.0,1043196
2,8120,4030.0,1043800
2,8125,4029.0,1044399
2,8130,4029.0,1045094
2,8135,4045.0,1045687
2,8140,4045.0,1046298
2,8145,4041.0,1046888
2,8150,4036.0,1047448
2,8155,4034.0,1048059
2,8160,4039.0,1048749
2,8165,4037.0,1049427
2,8170,4038.0,1050029
2,8175,4039.0,1050618
2,8180,4038.0,1051224
2,8185,4049.0,1051820
2,8190,4050.0,1052423
2,8195,4056.0,1053111
2,8200,4047.0,1053874
2,8205,4041.0,1054632
2,8210,4015.0,1055143
2,8215,4026.0,1055746
2,8220,4023.0,1056430
2,8225,4023.0,1057032
2,8230,4023.0,1057642
2,8235,4022.0,1058249
2,8240,4014.0,1058923
2,8245,4019.0,1059519
2,8250,4030.0,1060111
2,8255,4031.0,1060707
2,8260,4028.0,1061384
2,8265,4027.0,1062070
2,8270,4026.0,1062673
2,8275,4024.0,1063272
2,8280,4022.0,1063949
2,8285,4021.0,1064554
2,8290,4017.0,1065309
2,8295,4017.0,1065913
2,8300,4024.0,1066517
2,8305,4014.0,1067064
2,8310,4043.0,1067673
2,8315,4039.0,1068354
2,8320,4042.0,1068952
2,8325,4042.0,1069630
2,8330,4041.0,1070237
2,8335,3998.0,1070824
2,8340,4005.0,1071514
2,8345,3975.0,1072029
2,8350,3976.0,1072628
2,8355,3971.0,1073308
2,8360,3964.0,1073932
2,8365,3955.0,1074573
2,8370,3926.0,1075080
2,8375,3928.0,1075686
2,8380,3925.0,1076322
2,8385,3926.0,1076932
2,8390,3919.0,1077509
2,8395,3916.0,1078190
2,8400,3918.0,1078788
2,8405,3932.0,1079390
2,8410,3920.0,1080066
2,8415,3834.0,1080481
2,8420,3832.0,1081106
2,8425,3819.0,1081653
2,8430,3815.0,1082328
2,8435,3828.0,1082847
2,8440,3829.0,1083446
2,8445,3856.0,1084126
2,8450,3823.0,1084635
2,8455,3828.0,1085249
2,8460,3837.0,1085997
2,8465,3831.0,1086534
2,8470,3858.0,1087206
2,8475,3857.0,1087801
2,8480,3858.0,1088495
2,8485,3828.0,1089011
2,8490,3838.0,1089607
2,8495,3843.0,1090201
2,8500,3841.0,1090814
2,8505,3811.0,1091309
2,8510,3802.0,1091855
2,8515,3892.0,1092458
2,8520,3894.0,1093057
2,8525,3906.0,1093658
2,8530,3911.0,1094267
2,8535,3911.0,1094778
2,8540,3910.0,1095375
2,8545,3898.0,1095935
2,8550,3930.0,1096621
2,8555,3928.0,1097312
2,8560,3919.0,1097986
2,8565,3936.0,1098609
2,8570,3939.0,1099206
2,8575,3937.0,1099801
2,8580,3937.0,1100489
2,8585,3965.0,1101163
2,8590,3963.0,1101782
2,8595,3962.0,1102395
2,8600,3961.0,1103086
2,8605,3975.0,1103629
2,8610,3996.0,1104232
2,8615,3967.0,1104745
2,8620,3965.0,1105486
2,8625,3967.0,1106161
2,8630,3967.0,1106753
2,8635,3997.0,1107355
2,8640,3996.0,1107964
2,8645,4008.0,1108569
2,8650,4009.0,1109179
2,8655,4009.0,1109773
2,8660,4019.0,1110368
2,8665,4020.0,1110966
2,8670,4019.0,1111567
2,8675,4016.0,1112173
2,8680,4010.0,1112811
2,8685,4011.0,1113485
2,8690,4013.0,1114086
2,8695,4013.0,1114688
2,8700,4015.0,1115281
2,8705,4032.0,1115962
2,8710,4002.0,1116580
2,8715,4029.0,1117188
2,8720,4030.0,1117790
2,8725,4031.0,1118398
2,8730,4030.0,1119082
2,8735,4028.0,1119752
2,8740,4029.0,1120365
2,8745,4026.0,1120957
2,8750,4025.0,1121570
2,8755,4021.0,1122166
2,8760,4018.0,1122802
2,8765,4013.0,1123492
2,8770,4014.0,1124087
2,8775,4019.0,1124681
2,8780,4029.0,1125373
2,8785,4016.0,1126133
2,8790,4017.0,1126747
2,8795,4017.0,1127362
2,8800,4015.0,1128034
2,8805,4015.0,1128627
2,8810,4044.0,1129271
2,8815,4043.0,1130011
2,8820,4042.0,1130691
2,8825,4041.0,1131297
2,8830,4035.0,1131977
2,8835,4038.0,1132567
2,8840,4038.0,1133158
2,8845,4043.0,1133752
2,8850,4042.0,1134360
2,8855,4049.0,1134980
2,8860,4035.0,1135536
2,8865,4038.0,1136204
2,8870,4038.0,1136797
2,8875,4037.0,1137400
2,8880,4038.0,1138081
2,8885,4050.0,1138800
2,8890,4044.0,1139560
2,8895,4044.0,1140180
2,8900,4040.0,1140941
2,8905,4036.0,1141614
2,8910,4035.0,1142224
2,8915,4028.0,1142796
2,8920,4029.0,1143396
2,8925,4013.0,1143939
2,8930,4020.0,1144538
2,8935,4018.0,1145217
2,8940,4018.0,1145833
2,8945,4017.0,1146431
2,8950,4018.0,1147038
2,8955,4016.0,1147636
2,8960,4032.0,1148226
2,8965,4031.0,1148832
2,8970,4031.0,1149440
2,8975,4030.0,1150119
2,8980,4002.0,1150743
2,8985,4003.0,1151416
2,8990,3985.0,1152053
2,8995,3985.0,1152658
2,9000,3992.0,1153264
2,9005,3996.0,1153871
2,9010,3938.0,1154287
2,9015,3947.0,1154881
2,9020,3942.0,1155535
2,9025,3959.0,1156143
2,9030,3954.0,1156857
2,9035,3955.0,1157535
2,9040,3953.0,1158226
2,9045,3955.0,1158822
2,9050,3951.0,1159434
2,9055,3952.0,1160031
2,9060,3954.0,1160630
2,9065,3953.0,1161318
2,9070,3930.0,1162082
2,9075,3901.0,1162591
2,9080,3929.0,1163197
2,9085,3931.0,1163793
2,9090,3953.0,1164398
2,9095,3950.0,1165002
2,9100,3949.0,1165600
2,9105,3917.0,1166274
2,9110,3976.0,1166879
2,9115,3974.0,1167516
2,9120,3979.0,1168121
2,9125,3976.0,1168800
2,9130,3981.0,1169398
2,9135,3981.0,1170084
2,9140,3982.0,1170693
2,9145,3978.0,1171298
2,9150,3983.0,1171899
2,9155,3979.0,1172584
2,9160,3978.0,1173263
2,9165,3981.0,1173861
2,9170,4003.0,1174543
2,9175,4035.0,1175152
2,9180,4023.0,1175756
2,9185,4020.0,1176420
2,9190,4021.0,1177030
2,9195,4023.0,1177627
2,9200,4022.0,1178301
2,9205,4040.0,1178944
2,9210,4039.0,1179550
2,9215,4042.0,1180148
2,9220,4042.0,1180826
2,9225,4043.0,1181511
2,9230,4041.0,1182113
2,9235,4039.0,1182713
2,9240,4040.0,1183309
2,9245,4042.0,1183909
2,9250,4042.0,1184501
2,9255,4047.0,1185105
2,9260,4044.0,1185780
2,9265,4044.0,1186378
2,9270,4043.0,1186978
2,9275,4019.0,1187590
2,9280,4032.0,1188184
2,9285,4035.0,1188784
2,9290,4035.0,1189387
2,9295,4035.0,1189988
2,9300,4035.0,1190586
2,9305,4047.0,1191236
2,9310,4036.0,1191923
2,9315,4035.0,1192522
2,9320,4035.0,1193115
2,9325,4037.0,1193712
2,9330,4039.0,1194314
2,9335,4040.0,1194912
2,9340,4039.0,1195513
2,9345,4034.0,1196200
2,9350,4032.0,1196817
2,9355,4032.0,1197423
2,9360,4035.0,1198030
2,9365,4029.0,1198793
2,9370,4028.0,1199391
2,9375,4046.0,1200073
2,9380,4043.0,1200760
2,9385,4042.0,1201433
2,9390,4041.0,1202025
2,9395,4043.0,1202628
2,9400,4043.0,1203226
2,9405,4042.0,1203900
2,9410,4055.0,1204500
2,9415,3983.0,1204897
2,9420,3969.0,1205575
2,9425,3967.0,1206252
2,9430,3968.0,1206846
2,9435,3969.0,1207443
2,9440,3964.0,1208124
2,9445,3966.0,1208718
2,9450,3962.0,1209310
2,9455,3925.0,1209811
2,9460,3924.0,1210504
2,9465,3928.0,1211188
2,9470,3915.0,1211868
2,9475,3914.0,1212631
2,9480,3917.0,1213234
2,9485,3902.0,1213780
2,9490,3904.0,1214388
2,9495,3902.0,1215061
2,9500,3903.0,1215661
2,9505,3902.0,1216349
2,9510,3898.0,1216946
2,9515,3969.0,1217568
2,9520,3978.0,1218258
2,9525,3974.0,1219014
2,9530,3969.0,1219691
2,9535,3970.0,1220284
2,9540,3976.0,1220887
2,9545,3951.0,1221400
2,9550,3957.0,1222006
2,9555,3964.0,1222511
2,9560,3962.0,1223104
2,9565,3924.0,1223854
2,9570,3921.0,1224396
2,9575,3928.0,1225059
2,9580,3928.0,1225658
2,9585,3943.0,1226259
2,9590,3940.0,1226937
2,9595,3941.0,1227543
2,9600,3936.0,1228219
2,9605,3940.0,1228909
2,9610,3940.0,1229507
2,9615,3913.0,1230103
2,9620,3916.0,1230780
2,9625,3921.0,1231380
2,9630,3921.0,1232077
2,9635,3890.0,1232595
2,9640,3873.0,1233144
2,9645,3903.0,1233746
2,9650,3902.0,1234346
2,9655,3931.0,1234943
2,9660,3935.0,1235546
2,9665,3973.0,1236140
2,9670,3992.0,1236732
2,9675,3992.0,1237325
2,9680,3989.0,1237919
2,9685,3987.0,1238596
2,9690,3988.0,1239200
2,9695,3988.0,1239798
2,9700,3989.0,1240480
2,9705,3986.0,1241155
2,9710,3959.0,1241850
2,9715,3988.0,1242454
2,9720,3979.0,1243071
2,9725,3968.0,1243656
2,9730,3970.0,1244338
2,9735,3968.0,1244924
2,9740,3985.0,1245610
2,9745,3984.0,1246210
2,9750,3979.0,1246895
2,9755,3980.0,1247498
2,9760,3980.0,1248096
2,9765,3983.0,1248702
2,9770,3972.0,1249310
2,9775,3969.0,1249990
2,9780,3971.0,1250592
2,9785,3973.0,1251191
2,9790,3974.0,1251784
2,9795,3964.0,1252442
2,9800,3968.0,1253058
2,9805,3959.0,1253637
2,9810,3981.0,1254322
2,9815,3979.0,1254921
2,9820,3989.0,1255523
2,9825,3994.0,1256203
2,9830,3997.0,1256803
2,9835,4028.0,1257437
2,9840,3995.0,1257977
2,9845,3987.0,1258559
2,9850,3977.0,1259106
2,9855,3976.0,1259702
2,9860,3974.0,1260309
2,9865,3958.0,1260870
2,9870,3967.0,1261473
2,9875,3962.0,1262057
2,9880,3963.0,1262654
2,9885,3963.0,1263259
2,9890,3964.0,1263861
2,9895,3973.0,1264462
2,9900,3972.0,1265054
2,9905,3985.0,1265671
2,9910,3994.0,1266272
2,9915,3995.0,1266880
2,9920,3996.0,1267500
2,9925,3997.0,1268335
2,9930,3995.0,1268937
2,9935,3994.0,1269618
2,9940,4025.0,1270374
2,9945,4033.0,1270975
2,9950,4020.0,1271486
2,9955,4020.0,1272089
2,9960,4021.0,1272681
2,9965,4036.0,1273285
2,9970,4037.0,1273881
2,9975,4043.0,1274547
2,9980,4041.0,1275181
2,9985,4027.0,1275822
2,9990,4001.0,1276605
2,9995,3981.0,1277145
2,10000,3982.0,1277748
2,10005,3974.0,1278506
2,10010,3974.0,1279108
2,10015,3971.0,1279784
2,10020,3966.0,1280524
2,10025,3969.0,1281126
2,10030,3971.0,1281720
2,10035,3973.0,1282317
2,10040,3947.0,1282840
2,10045,3945.0,1283526
2,10050,3973.0,1284131
2,10055,3972.0,1284739
2,10060,3948.0,1285260
2,10065,3947.0,1285936
2,10070,3945.0,1286581
2,10075,3937.0,1287264
2,10080,3939.0,1287862
2,10085,3950.0,1288527
2,10090,3975.0,1289123
2,10095,3992.0,1289859
2,10100,3993.0,1290461
2,10105,3996.0,1291138
2,10110,3995.0,1291750
2,10115,3997.0,1292348
2,10120,4002.0,1292947
2,10125,3999.0,1293620
2,10130,3997.0,1294223
2,10135,3997.0,1294827
2,10140,4024.0,1295582
2,10145,4026.0,1296183
2,10150,4026.0,1296785
2,10155,4017.0,1297457
2,10160,4039.0,1298065
2,10165,4038.0,1298683
2,10170,4041.0,1299281
2,10175,4050.0,1299883
2,10180,4047.0,1300483
2,10185,4050.0,1301087
2,10190,4050.0,1301690
2,10195,4053.0,1302286
2,10200,4053.0,1302882
2,10205,4056.0,1303558
2,10210,4055.0,1304156
2,10215,4038.0,1304932
2,10220,4007.0,1305447
2,10225,4012.0,1306049
2,10230,3983.0,1306572
2,10235,3983.0,1307176
2,10240,3971.0,1307727
2,10245,3969.0,1308415
2,10250,3968.0,1309023
2,10255,3977.0,1309704
2,10260,3977.0,1310310
2,10265,3980.0,1310912
2,10270,3977.0,1311555
2,10275,3976.0,1312238
2,10280,3979.0,1312836
2,10285,3980.0,1313435
2,10290,3981.0,1314042
2,10295,3957.0,1314748
2,10300,3955.0,1315430
2,10305,3955.0,1316027
2,10310,3955.0,1316633
2,10315,3954.0,1317310
2,10320,3985.0,1317907
2,10325,3985.0,1318505
2,10330,4011.0,1319107
2,10335,4010.0,1319777
2,10340,4024.0,1320381
2,10345,4011.0,1320934
2,10350,4011.0,1321563
2,10355,4011.0,1322242
2,10360,4014.0,1322836
2,10365,4010.0,1323505
2,10370,4012.0,1324103
2,10375,4014.0,1324694
2,10380,3992.0,1325316
2,10385,3992.0,1325915
2,10390,3992.0,1326513
2,10395,4017.0,1327116
2,10400,4017.0,1327719
2,10405,4018.0,1328317
2,10410,4019.0,1328920
2,10415,4039.0,1329516
2,10420,4040.0,1330118
2,10425,4041.0,1330729
2,10430,4045.0,1331330
2,10435,4045.0,1331941
2,10440,4039.0,1332690
2,10445,4053.0,1333307
2,10450,4054.0,1333924
2,10455,4048.0,1334594
2,10460,4028.0,1335139
2,10465,4004.0,1335663
2,10470,4003.0,1336260
2,10475,4003.0,1336855
2,10480,4024.0,1337453
2,10485,4020.0,1338129
2,10490,3987.0,1338806
2,10495,3988.0,1339404
2,10500,3958.0,1339909
2,10505,3959.0,1340521
2,10510,3959.0,1341125
2,10515,3959.0,1341728
2,10520,3951.0,1342408
2,10525,3950.0,1343024
2,10530,3948.0,1343710
2,10535,3947.0,1344397
2,10540,3953.0,1345002
2,10545,3951.0,1345676
2,10550,3950.0,1346277
2,10555,3952.0,1346974
2,10560,3971.0,1347565
2,10565,3999.0,1348180
2,10570,3995.0,1348890
2,10575,3993.0,1349566
2,10580,3994.0,1350176
2,10585,3998.0,1350772
2,10590,4031.0,1351376
2,10595,4029.0,1351984
2,10600,4061.0,1352579
2,10605,4060.0,1353190
2,10610,4058.0,1353864
2,10615,4057.0,1354462
2,10620,4061.0,1355140
2,10625,4060.0,1355827
2,10630,4063.0,1356431
2,10635,4064.0,1357026
2,10640,4058.0,1357790
2,10645,4060.0,1358461
2,10650,4061.0,1359053
2,10655,4051.0,1359738
2,10660,4052.0,1360338
2,10665,4052.0,1360923
2,10670,4058.0,1361527
2,10675,4060.0,1362128
2,10680,4060.0,1362726
2,10685,4060.0,1363323
2,10690,4060.0,1363924
2,10695,4052.0,1364600
2,10700,4051.0,1365199
2,10705,4050.0,1365801
2,10710,4052.0,1366431
2,10715,4051.0,1367136
2,10720,4054.0,1367752
2,10725,4055.0,1368357
2,10730,4051.0,1369031
2,10735,4053.0,1369629
2,10740,4057.0,1370231
2,10745,4058.0,1370886
2,10750,4057.0,1371483
2,10755,4071.0,1372079
2,10760,4069.0,1372761
2,10765,4064.0,1373437
2,10770,4062.0,1374114
2,10775,4058.0,1374724
2,10780,4049.0,1375474
2,10785,4047.0,1376080
2,10790,4042.0,1376923
2,10795,4049.0,1377507
2,10800,4047.0,1378102
2,10805,4048.0,1378708
2,10810,4029.0,1379325
2,10815,4029.0,1380016
2,10820,4013.0,1380561
2,10825,4014.0,1381165
2,10830,4014.0,1381848
2,10835,4014.0,1382502
2,10840,4013.0,1383089
2,10845,4006.0,1383846
2,10850,4008.0,1384465
2,10855,4010.0,1385074
2,10860,4009.0,1385664
2,10865,4012.0,1386262
2,10870,4013.0,1386858
2,10875,4015.0,1387475
2,10880,4022.0,1388083
2,10885,4019.0,1388843
2,10890,4018.0,1389431
2,10895,4020.0,1390026
2,10900,4022.0,1390629
2,10905,4023.0,1391224
2,10910,4042.0,1391824
2,10915,4043.0,1392424
2,10920,4059.0,1393030
2,10925,4053.0,1393719
2,10930,4036.0,1394350
2,10935,4036.0,1395021
2,10940,4021.0,1395569
2,10945,4029.0,1396166
2,10950,4026.0,1396842
2,10955,4019.0,1397595
2,10960,3972.0,1398049
2,10965,3973.0,1398657
2,10970,3960.0,1399416
2,10975,3961.0,1400008
2,10980,3930.0,1400601
2,10985,3932.0,1401277
2,10990,3937.0,1401887
2,10995,3922.0,1402565
2,11000,3894.0,1403078
2,11005,3893.0,1403670
2,11010,3892.0,1404315
2,11015,3892.0,1404919
2,11020,3848.0,1405470
2,11025,3853.0,1406079
2,11030,3854.0,1406701
2,11035,3850.0,1407381
2,11040,3866.0,1408062
2,11045,3865.0,1408661
2,11050,3864.0,1409263
2,11055,3869.0,1409882
2,11060,3918.0,1410490
2,11065,3894.0,1411012
2,11070,3907.0,1411612
2,11075,3905.0,1412209
2,11080,3936.0,1412825
2,11085,3939.0,1413429
2,11090,3935.0,1414023
2,11095,3950.0,1414646
2,11100,3973.0,1415270
2,11105,3974.0,1415872
2,11110,3976.0,1416472
2,11115,3977.0,1417081
2,11120,4017.0,1417737
2,11125,4018.0,1418333
2,11130,4033.0,1419022
2,11135,4037.0,1419620
2,11140,4037.0,1420233
2,11145,4038.0,1420830
2,11150,4041.0,1421532
2,11155,4038.0,1422206
2,11160,4038.0,1422808
2,11165,4060.0,1423487
2,11170,4041.0,1424098
2,11175,4044.0,1424702
2,11180,4043.0,1425307
2,11185,4041.0,1425920
2,11190,4045.0,1426549
2,11195,4033.0,1427231
2,11200,4038.0,1427839
2,11205,4007.0,1428400
2,11210,4004.0,1429061
2,11215,4003.0,1429664
2,11220,4006.0,1430273
2,11225,3963.0,1430741
2,11230,3922.0,1431288
2,11235,3919.0,1431917
2,11240,3904.0,1432550
2,11245,3898.0,1433219
2,11250,3884.0,1433776
2,11255,3888.0,1434378
2,11260,3889.0,1434984
2,11265,3890.0,1435600
2,11270,3909.0,1436223
2,11275,3909.0,1436826
2,11280,3910.0,1437418
2,11285,3911.0,1438028
2,11290,3885.0,1438553
2,11295,3895.0,1439319
2,11300,3805.0,1439730
2,11305,3686.0,1439880
2,11310,3629.0,1440294
2,11315,3629.0,1440888
2,11320,3624.0,1441725
2,11325,3666.0,1442327
2,11330,3692.0,1442871
2,11335,3695.0,1443484
2,11340,3698.0,1444147
2,11345,3704.0,1444757
2,11350,3687.0,1445351
2,11355,3649.0,1445944
2,11360,3648.0,1446550
2,11365,3650.0,1447154
2,11370,3649.0,1447754
2,11375,3649.0,1448349
2,11380,3648.0,1448966
2,11385,3646.0,1449653
2,11390,3672.0,1450332
2,11395,3658.0,1450892
2,11400,3727.0,1451568
2,11405,3873.0,1452260
2,11410,3931.0,1452855
2,11415,3930.0,1453472
2,11420,3928.0,1454044
2,11425,3928.0,1454639
2,11430,3947.0,1455291
2,11435,3946.0,1455891
2,11440,3958.0,1456577
2,11445,3958.0,1457175
2,11450,3990.0,1457778
2,11455,4027.0,1458376
2,11460,4025.0,1458970
2,11465,4020.0,1459647
2,11470,4018.0,1460340
2,11475,4016.0,1460943
2,11480,4018.0,1461587
2,11485,4020.0,1462200
2,11490,3999.0,1462816
2,11495,4014.0,1463423
2,11500,4036.0,1464021
2,11505,4039.0,1464634
2,11510,4039.0,1465284
2,11515,4021.0,1465826
2,11520,4027.0,1466432
2,11525,4022.0,1467110
2,11530,4022.0,1467752
2,11535,4010.0,1468433
2,11540,4011.0,1469043
2,11545,4008.0,1469653
2,11550,4002.0,1470400
2,11555,4004.0,1471001
2,11560,4007.0,1471601
2,11565,3996.0,1472150
2,11570,3997.0,1472759
2,11575,3998.0,1473356
2,11580,3998.0,1473954
2,11585,3998.0,1474549
2,11590,4016.0,1475148
2,11595,4018.0,1475763
2,11600,4012.0,1476500
2,11605,4013.0,1477108
2,11610,4015.0,1477713
2,11615,4034.0,1478309
2,11620,4036.0,1478918
2,11625,4041.0,1479522
2,11630,4036.0,1480208
2,11635,4033.0,1480756
2,11640,4034.0,1481363
2,11645,4028.0,1482049
2,11650,4031.0,1482660
2,11655,4028.0,1483261
2,11660,4011.0,1483901
2,11665,4025.0,1484507
2,11670,4026.0,1485103
2,11675,4022.0,1485783
2,11680,4022.0,1486397
2,11685,4022.0,1487002
2,11690,4026.0,1487617
2,11695,4024.0,1488222
2,11700,4028.0,1488904
2,11705,4026.0,1489508
2,11710,4011.0,1490080
2,11715,3998.0,1490751
2,11720,3999.0,1491357
2,11725,4000.0,1491967
2,11730,4004.0,1492719
2,11735,4017.0,1493387
2,11740,4000.0,1493939
2,11745,4008.0,1494679
2,11750,4009.0,1495277
2,11755,4012.0,1495883
2,11760,4027.0,1496588
2,11765,4029.0,1497191
2,11770,4028.0,1497920
2,11775,4007.0,1498465
2,11780,4006.0,1499083
2,11785,3951.0,1499518
