% time spent exploring,episodes,mean 100 episode reward,steps
99,5,575.0,565
99,10,522.2,1163
99,15,492.9,1791
99,20,442.1,2356
98,25,466.7,3126
98,30,479.3,3715
98,35,447.1,4242
98,40,417.9,4921
98,45,422.7,5651
97,50,422.4,6229
97,55,422.2,6784
97,60,408.5,7543
97,65,417.2,8358
97,70,424.6,9047
96,75,418.9,9647
96,80,431.6,10051
96,85,431.0,10751
96,90,443.8,11423
96,95,464.9,12223
95,100,462.6,12903
95,105,452.0,13537
95,110,450.0,14366
95,115,454.0,15081
94,120,465.0,15860
94,125,470.0,16522
94,130,468.0,16937
94,135,488.0,17683
94,140,499.0,18205
93,145,497.0,19010
93,150,492.0,19555
93,155,494.0,20310
93,160,513.0,20939
92,165,515.0,21495
92,170,517.0,22020
92,175,526.0,22670
92,180,532.0,23473
92,185,538.0,24062
91,190,539.0,24757
91,195,540.0,25601
91,200,557.0,26398
91,205,560.0,27046
90,210,568.0,27592
90,215,558.0,28310
90,220,561.0,29042
90,225,562.0,29746
90,230,574.0,30290
89,235,583.0,31169
89,240,592.0,31970
89,245,591.0,32320
89,250,598.0,32706
89,255,603.0,33478
88,260,607.0,34223
88,265,622.0,35024
88,270,619.0,35529
88,275,625.0,36402
88,280,607.0,36710
87,285,609.0,37341
87,290,603.0,37723
87,295,596.0,38169
87,300,600.0,38755
87,305,602.0,39419
86,310,600.0,40048
86,315,627.0,40851
86,320,631.0,41453
86,325,626.0,42157
86,330,617.0,42814
85,335,603.0,43307
85,340,609.0,43931
85,345,633.0,44592
85,350,661.0,45373
85,355,659.0,45854
84,360,665.0,46572
84,365,644.0,47107
84,370,659.0,47792
84,375,675.0,48526
83,380,695.0,49235
83,385,700.0,49799
83,390,727.0,50625
83,395,716.0,51306
82,400,721.0,52181
82,405,737.0,52830
82,410,755.0,53542
82,415,758.0,54300
82,420,785.0,55066
81,425,784.0,55481
81,430,796.0,56187
81,435,804.0,57005
81,440,783.0,57351
81,445,767.0,57975
80,450,760.0,58584
80,455,776.0,59079
80,460,765.0,59904
80,465,787.0,60707
79,470,785.0,61392
79,475,785.0,62223
79,480,785.0,62659
79,485,787.0,63168
79,490,771.0,63767
78,495,780.0,64477
78,500,789.0,65231
78,505,784.0,65956
78,510,780.0,66399
77,515,790.0,67381
77,520,785.0,68035
77,525,790.0,68609
77,530,783.0,69005
77,535,799.0,69683
77,540,832.0,70300
76,545,827.0,70709
76,550,828.0,71466
76,555,836.0,72209
76,560,845.0,72722
75,565,847.0,73497
75,570,862.0,74370
75,575,867.0,74938
75,580,860.0,75658
74,585,889.0,76575
74,590,878.0,77122
74,595,885.0,77962
74,600,865.0,78482
74,605,875.0,79038
73,610,892.0,79819
73,615,892.0,80395
73,620,897.0,81224
73,625,916.0,82113
72,630,935.0,82825
72,635,932.0,83474
72,640,912.0,84150
72,645,932.0,84659
72,650,946.0,85587
71,655,930.0,86272
71,660,925.0,86599
71,665,910.0,87173
71,670,898.0,87747
71,675,889.0,88486
70,680,915.0,89128
70,685,912.0,89980
70,690,924.0,90614
70,695,915.0,90971
70,700,927.0,91836
69,705,929.0,92397
69,710,934.0,93255
69,715,918.0,93704
69,720,899.0,94315
69,725,876.0,94764
68,730,854.0,95269
68,735,855.0,95637
68,740,887.0,96632
68,745,894.0,97262
67,750,884.0,98079
67,755,904.0,98857
67,760,925.0,99671
67,765,930.0,100155
67,770,954.0,100833
66,775,947.0,101431
66,780,936.0,101911
66,785,934.0,102750
66,790,938.0,103269
66,795,951.0,103836
65,800,970.0,104688
65,805,985.0,105495
65,810,980.0,106174
65,815,1001.0,107090
64,820,1023.0,107854
64,825,1055.0,108622
64,830,1073.0,109129
64,835,1071.0,109763
63,840,1075.0,110758
63,845,1079.0,111387
63,850,1072.0,112157
63,855,1068.0,112832
62,860,1077.0,113654
62,865,1107.0,114486
62,870,1077.0,114935
62,875,1112.0,115815
61,880,1141.0,116681
61,885,1147.0,117418
61,890,1158.0,118117
61,895,1164.0,118656
61,900,1139.0,119138
60,905,1138.0,119655
60,910,1156.0,120531
60,915,1151.0,121286
60,920,1130.0,121839
59,925,1144.0,122725
59,930,1147.0,123318
59,935,1153.0,123873
59,940,1155.0,124530
59,945,1141.0,124984
58,950,1158.0,125808
58,955,1164.0,126399
58,960,1159.0,126941
58,965,1144.0,127437
58,970,1187.0,128121
57,975,1195.0,129107
57,980,1182.0,129802
57,985,1175.0,130624
57,990,1173.0,131168
56,995,1202.0,132070
56,1000,1231.0,132893
56,1005,1222.0,133564
56,1010,1191.0,134011
56,1015,1189.0,134573
55,1020,1188.0,134948
55,1025,1159.0,135717
55,1030,1184.0,136458
55,1035,1190.0,137234
54,1040,1187.0,138079
54,1045,1194.0,138446
54,1050,1205.0,139247
54,1055,1212.0,140028
54,1060,1204.0,140555
53,1065,1187.0,140862
53,1070,1180.0,141758
53,1075,1161.0,142403
53,1080,1151.0,143005
53,1085,1155.0,143754
52,1090,1168.0,144582
52,1095,1137.0,145321
52,1100,1133.0,146195
51,1105,1159.0,147046
51,1110,1176.0,147775
51,1115,1194.0,148585
51,1120,1216.0,149084
51,1125,1228.0,149799
50,1130,1187.0,150053
50,1135,1195.0,150925
50,1140,1191.0,151760
50,1145,1208.0,152624
49,1150,1221.0,153367
49,1155,1231.0,154233
49,1160,1233.0,154704
49,1165,1281.0,155465
48,1170,1283.0,156341
48,1175,1288.0,157220
48,1180,1308.0,157872
48,1185,1338.0,158867
47,1190,1353.0,159789
47,1195,1374.0,160470
47,1200,1381.0,161296
47,1205,1339.0,161788
46,1210,1346.0,162686
46,1215,1348.0,163539
46,1220,1365.0,164459
46,1225,1344.0,164741
45,1230,1403.0,165514
45,1235,1404.0,166303
45,1240,1404.0,166957
45,1245,1416.0,167913
44,1250,1412.0,168617
44,1255,1426.0,169384
44,1260,1422.0,169739
44,1265,1412.0,170408
44,1270,1426.0,171368
43,1275,1455.0,172185
43,1280,1462.0,173180
43,1285,1446.0,173866
42,1290,1453.0,174536
42,1295,1460.0,175209
42,1300,1485.0,176165
42,1305,1520.0,176685
42,1310,1527.0,177400
41,1315,1520.0,178165
41,1320,1533.0,179045
41,1325,1576.0,179859
41,1330,1554.0,180525
40,1335,1555.0,181341
40,1340,1575.0,182016
40,1345,1567.0,182588
40,1350,1574.0,183165
39,1355,1562.0,184041
39,1360,1568.0,184545
39,1365,1573.0,185190
39,1370,1557.0,186006
38,1375,1554.0,186848
38,1380,1556.0,187573
38,1385,1578.0,188394
38,1390,1570.0,189083
37,1395,1584.0,190078
37,1400,1603.0,191073
37,1405,1606.0,191895
37,1410,1624.0,192817
36,1415,1653.0,193692
36,1420,1631.0,194200
36,1425,1621.0,194808
36,1430,1625.0,195803
35,1435,1634.0,196604
35,1440,1646.0,197480
35,1445,1683.0,198267
34,1450,1700.0,199048
34,1455,1702.0,199765
34,1460,1736.0,200760
34,1465,1716.0,201389
33,1470,1721.0,202140
33,1475,1733.0,203135
33,1480,1741.0,203901
33,1485,1746.0,204580
32,1490,1780.0,205575
32,1495,1780.0,206467
32,1500,1754.0,207210
32,1505,1780.0,208020
31,1510,1759.0,208606
31,1515,1730.0,209253
31,1520,1754.0,210088
31,1525,1789.0,211083
30,1530,1808.0,211907
30,1535,1839.0,212690
30,1540,1820.0,213335
30,1545,1811.0,214147
29,1550,1807.0,215018
29,1555,1845.0,215830
29,1560,1836.0,216429
29,1565,1884.0,217251
28,1570,1880.0,217894
28,1575,1883.0,218728
28,1580,1888.0,219517
28,1585,1864.0,220274
27,1590,1847.0,221136
27,1595,1868.0,222024
27,1600,1888.0,223019
26,1605,1882.0,223755
26,1610,1927.0,224733
26,1615,1945.0,225400
26,1620,1954.0,226213
25,1625,1956.0,227097
25,1630,1960.0,227970
25,1635,1984.0,228928
25,1640,2009.0,229587
24,1645,2004.0,230405
24,1650,1999.0,231217
24,1655,1978.0,231958
24,1660,1986.0,232476
23,1665,1973.0,233374
23,1670,2017.0,234369
23,1675,2011.0,235118
22,1680,2028.0,235994
22,1685,2064.0,236966
22,1690,2038.0,237490
22,1695,2019.0,238306
21,1700,2009.0,239301
21,1705,2034.0,240167
21,1710,2027.0,240995
21,1715,2048.0,241762
20,1720,2013.0,242413
20,1725,2021.0,243408
20,1730,2041.0,244403
19,1735,2007.0,245140
19,1740,2009.0,245984
19,1745,2026.0,246832
19,1750,2041.0,247704
18,1755,2032.0,248544
18,1760,2073.0,249436
18,1765,2091.0,250213
17,1770,2102.0,251049
17,1775,2120.0,252033
17,1780,2108.0,252716
17,1785,2094.0,253431
17,1790,2118.0,254005
16,1795,2157.0,255000
16,1800,2132.0,255556
16,1805,2128.0,256460
15,1810,2129.0,257455
15,1815,2126.0,258190
15,1820,2175.0,259185
15,1825,2172.0,260180
14,1830,2184.0,261175
14,1835,2187.0,261793
14,1840,2199.0,262625
13,1845,2210.0,263434
13,1850,2220.0,264316
13,1855,2251.0,265164
13,1860,2215.0,266159
12,1865,2227.0,267059
12,1870,2241.0,268054
12,1875,2235.0,268962
11,1880,2271.0,269952
11,1885,2283.0,270814
11,1890,2312.0,271688
10,1895,2290.0,272524
10,1900,2345.0,273519
10,1905,2373.0,274514
10,1910,2387.0,275261
9,1915,2418.0,276125
9,1920,2442.0,277120
9,1925,2470.0,277994
8,1930,2466.0,278854
8,1935,2477.0,279597
8,1940,2509.0,280592
8,1945,2534.0,281587
7,1950,2546.0,282529
7,1955,2548.0,283274
7,1960,2585.0,284269
6,1965,2576.0,284986
6,1970,2584.0,285981
6,1975,2599.0,286829
5,1980,2618.0,287824
5,1985,2644.0,288760
5,1990,2634.0,289525
5,1995,2643.0,290377
4,2000,2652.0,291285
4,2005,2633.0,292105
4,2010,2643.0,293055
3,2015,2621.0,293932
3,2020,2614.0,294720
3,2025,2586.0,295424
3,2030,2590.0,296125
2,2035,2608.0,297077
2,2040,2592.0,298072
2,2045,2583.0,298892
2,2050,2589.0,299887
2,2055,2623.0,300877
2,2060,2642.0,301872
2,2065,2667.0,302732
2,2070,2673.0,303727
2,2075,2698.0,304722
2,2080,2694.0,305717
2,2085,2700.0,306601
2,2090,2749.0,307543
2,2095,2769.0,308538
2,2100,2758.0,309414
2,2105,2749.0,310266
2,2110,2740.0,311015
2,2115,2786.0,311927
2,2120,2800.0,312885
2,2125,2847.0,313749
2,2130,2881.0,314744
2,2135,2897.0,315739
2,2140,2917.0,316734
2,2145,2923.0,317628
2,2150,2899.0,318167
2,2155,2901.0,319162
2,2160,2911.0,320130
2,2165,2929.0,321032
2,2170,2914.0,321736
2,2175,2906.0,322694
2,2180,2899.0,323590
2,2185,2918.0,324570
2,2190,2909.0,325528
2,2195,2926.0,326403
2,2200,2954.0,327252
2,2205,3008.0,328170
2,2210,3023.0,328937
2,2215,3025.0,329847
2,2220,3000.0,330534
2,2225,2982.0,331430
2,2230,2934.0,332260
2,2235,2946.0,333176
2,2240,2936.0,333961
2,2245,2923.0,334770
2,2250,2953.0,335547
2,2255,2952.0,336517
2,2260,2945.0,337469
2,2265,2943.0,338246
2,2270,2944.0,338895
2,2275,2951.0,339627
2,2280,2952.0,340559
2,2285,2948.0,341423
2,2290,2980.0,342418
2,2295,2986.0,343352
2,2300,2977.0,344272
2,2305,2980.0,345167
2,2310,2987.0,346101
2,2315,2978.0,346940
2,2320,2991.0,347731
2,2325,2990.0,348520
2,2330,3038.0,349515
2,2335,3051.0,350300
2,2340,3060.0,351103
2,2345,3064.0,351760
2,2350,3081.0,352652
2,2355,3088.0,353647
2,2360,3086.0,354557
2,2365,3088.0,355477
2,2370,3110.0,356411
2,2375,3142.0,357393
2,2380,3141.0,358388
2,2385,3129.0,359298
2,2390,3115.0,360232
2,2395,3093.0,361022
2,2400,3096.0,361859
2,2405,3075.0,362699
2,2410,3081.0,363587
2,2415,3084.0,364473
2,2420,3129.0,365431
2,2425,3126.0,366234
2,2430,3124.0,367159
2,2435,3099.0,368043
2,2440,3081.0,368895
2,2445,3086.0,369568
2,2450,3080.0,370502
2,2455,3083.0,371399
2,2460,3069.0,372147
2,2465,3100.0,373022
2,2470,3096.0,373958
2,2475,3044.0,374892
2,2480,3045.0,375770
2,2485,3029.0,376550
2,2490,2995.0,377408
2,2495,3013.0,378297
2,2500,3007.0,378964
2,2505,3010.0,379824
2,2510,3013.0,380819
2,2515,3005.0,381572
2,2520,2993.0,382492
2,2525,3018.0,383374
2,2530,3013.0,384215
2,2535,3013.0,384927
2,2540,3025.0,385922
2,2545,3051.0,386917
2,2550,3064.0,387703
2,2555,3066.0,388566
2,2560,3077.0,389500
2,2565,3060.0,390317
2,2570,3094.0,391154
2,2575,3099.0,391939
2,2580,3083.0,392688
2,2585,3119.0,393603
2,2590,3150.0,394509
2,2595,3154.0,395504
2,2600,3179.0,396366
2,2605,3191.0,397037
2,2610,3202.0,397858
2,2615,3226.0,398731
2,2620,3201.0,399589
2,2625,3214.0,400491
2,2630,3184.0,401208
2,2635,3182.0,402084
2,2640,3184.0,402853
2,2645,3180.0,403737
2,2650,3162.0,404597
2,2655,3156.0,405538
2,2660,3155.0,406448
2,2665,3106.0,407117
2,2670,3081.0,407909
2,2675,3100.0,408780
2,2680,3089.0,409390
2,2685,3058.0,410023
2,2690,3045.0,410869
2,2695,3013.0,411487
2,2700,3005.0,412264
2,2705,2992.0,413130
2,2710,2967.0,413851
2,2715,2939.0,414698
2,2720,2945.0,415377
2,2725,2927.0,416372
2,2730,2931.0,417139
2,2735,2958.0,418097
2,2740,2967.0,419092
2,2745,2949.0,419954
2,2750,2945.0,420802
2,2755,2955.0,421742
2,2760,2976.0,422626
2,2765,3012.0,423392
2,2770,3009.0,424302
2,2775,3005.0,425047
2,2780,3059.0,425907
2,2785,3072.0,426735
2,2790,3079.0,427647
2,2795,3118.0,428579
2,2800,3121.0,429574
2,2805,3130.0,430462
2,2810,3148.0,431396
2,2815,3144.0,432185
2,2820,3171.0,433013
2,2825,3199.0,433888
2,2830,3216.0,434883
2,2835,3218.0,435767
2,2840,3227.0,436590
2,2845,3252.0,437546
2,2850,3281.0,438541
2,2855,3243.0,439280
2,2860,3243.0,440010
2,2865,3246.0,440948
2,2870,3257.0,441913
2,2875,3251.0,442597
2,2880,3264.0,443392
2,2885,3257.0,444374
2,2890,3266.0,445298
2,2895,3262.0,445956
2,2900,3281.0,446827
2,2905,3274.0,447822
2,2910,3261.0,448574
2,2915,3315.0,449409
2,2920,3320.0,450328
2,2925,3268.0,451156
2,2930,3295.0,452090
2,2935,3268.0,452801
2,2940,3260.0,453588
2,2945,3262.0,454518
2,2950,3275.0,455359
2,2955,3313.0,456317
2,2960,3308.0,457299
2,2965,3321.0,458098
2,2970,3286.0,458938
2,2975,3297.0,459739
2,2980,3283.0,460617
2,2985,3286.0,461406
2,2990,3279.0,462157
2,2995,3304.0,463036
2,3000,3268.0,463862
2,3005,3266.0,464820
2,3010,3266.0,465584
2,3015,3239.0,466458
2,3020,3193.0,467271
2,3025,3242.0,468061
2,3030,3229.0,469056
2,3035,3266.0,469972
2,3040,3289.0,470856
2,3045,3305.0,471780
2,3050,3290.0,472730
2,3055,3242.0,473384
2,3060,3223.0,474199
2,3065,3198.0,474946
2,3070,3217.0,475873
2,3075,3243.0,476663
2,3080,3245.0,477658
2,3085,3272.0,478590
2,3090,3265.0,479393
2,3095,3254.0,480147
2,3100,3283.0,481006
2,3105,3286.0,481954
2,3110,3281.0,482545
2,3115,3257.0,483360
2,3120,3296.0,484288
2,3125,3290.0,485173
2,3130,3326.0,485959
2,3135,3286.0,486752
2,3140,3268.0,487482
2,3145,3228.0,488477
2,3150,3194.0,489118
2,3155,3243.0,489954
2,3160,3268.0,490825
2,3165,3298.0,491417
2,3170,3302.0,492386
2,3175,3285.0,493339
2,3180,3281.0,494221
2,3185,3283.0,495066
2,3190,3284.0,496046
2,3195,3274.0,496921
2,3200,3264.0,497772
2,3205,3270.0,498454
2,3210,3311.0,499111
2,3215,3351.0,499926
2,3220,3355.0,500738
2,3225,3357.0,501610
2,3230,3322.0,502570
2,3235,3370.0,503360
2,3240,3379.0,504269
2,3245,3409.0,504955
2,3250,3419.0,505783
2,3255,3450.0,506714
2,3260,3456.0,507474
2,3265,3461.0,508298
2,3270,3466.0,509083
2,3275,3465.0,509712
2,3280,3454.0,510324
2,3285,3448.0,511267
2,3290,3457.0,512177
2,3295,3460.0,513157
2,3300,3480.0,513967
2,3305,3497.0,514761
2,3310,3492.0,515521
2,3315,3505.0,516437
2,3320,3481.0,517171
2,3325,3481.0,517901
2,3330,3467.0,518463
2,3335,3445.0,519309
2,3340,3464.0,520045
2,3345,3450.0,520649
2,3350,3494.0,521445
2,3355,3440.0,522142
2,3360,3449.0,523068
2,3365,3449.0,523979
2,3370,3457.0,524814
2,3375,3481.0,525652
2,3380,3483.0,526562
2,3385,3499.0,527434
2,3390,3530.0,528197
2,3395,3510.0,529031
2,3400,3513.0,529900
2,3405,3538.0,530527
2,3410,3536.0,531522
2,3415,3537.0,532255
2,3420,3559.0,533169
2,3425,3582.0,533979
2,3430,3625.0,534873
2,3435,3641.0,535766
2,3440,3619.0,536425
2,3445,3644.0,537283
2,3450,3624.0,538140
2,3455,3654.0,539070
2,3460,3644.0,539665
2,3465,3633.0,540613
2,3470,3624.0,541351
2,3475,3614.0,542181
2,3480,3642.0,542908
2,3485,3611.0,543621
2,3490,3612.0,544500
2,3495,3658.0,545458
2,3500,3660.0,546304
2,3505,3652.0,547193
2,3510,3668.0,548126
2,3515,3625.0,548838
2,3520,3610.0,549746
2,3525,3592.0,550480
2,3530,3570.0,551308
2,3535,3525.0,551897
2,3540,3551.0,552756
2,3545,3551.0,553574
2,3550,3580.0,554365
2,3555,3606.0,555174
2,3560,3611.0,556063
2,3565,3633.0,556960
2,3570,3668.0,557624
2,3575,3685.0,558542
2,3580,3667.0,559370
2,3585,3685.0,560290
2,3590,3679.0,560854
2,3595,3653.0,561766
2,3600,3656.0,562483
2,3605,3657.0,563432
2,3610,3618.0,564366
2,3615,3659.0,565147
2,3620,3696.0,566064
2,3625,3714.0,566991
2,3630,3743.0,567905
2,3635,3777.0,568608
2,3640,3772.0,569524
2,3645,3773.0,570465
2,3650,3770.0,571326
2,3655,3760.0,572158
2,3660,3782.0,573075
2,3665,3778.0,573923
2,3670,3770.0,574741
2,3675,3741.0,575659
2,3680,3773.0,576492
2,3685,3800.0,577339
2,3690,3778.0,578175
2,3695,3809.0,578915
2,3700,3786.0,579502
2,3705,3791.0,580354
2,3710,3823.0,581189
2,3715,3805.0,581947
2,3720,3806.0,582698
2,3725,3800.0,583644
2,3730,3803.0,584439
2,3735,3831.0,585099
2,3740,3833.0,585945
2,3745,3847.0,586807
2,3750,3839.0,587671
2,3755,3837.0,588446
2,3760,3812.0,589103
2,3765,3816.0,590076
2,3770,3821.0,590898
2,3775,3836.0,591484
2,3780,3817.0,592206
2,3785,3800.0,592872
2,3790,3802.0,593557
2,3795,3793.0,594347
2,3800,3812.0,595041
2,3805,3796.0,595757
2,3810,3779.0,596463
2,3815,3793.0,597222
2,3820,3794.0,597950
2,3825,3756.0,598655
2,3830,3724.0,599279
2,3835,3719.0,600031
2,3840,3726.0,600704
2,3845,3729.0,601370
2,3850,3728.0,601978
2,3855,3742.0,602621
2,3860,3732.0,603290
2,3865,3735.0,604103
2,3870,3737.0,604801
2,3875,3759.0,605550
2,3880,3774.0,606219
2,3885,3783.0,606778
2,3890,3783.0,607483
2,3895,3780.0,608070
2,3900,3749.0,608652
2,3905,3768.0,609413
2,3910,3799.0,610148
2,3915,3807.0,610844
2,3920,3809.0,611473
2,3925,3826.0,612126
2,3930,3831.0,612650
2,3935,3799.0,613371
2,3940,3808.0,614187
2,3945,3797.0,614756
2,3950,3770.0,615627
2,3955,3732.0,616154
2,3960,3762.0,616735
2,3965,3758.0,617492
2,3970,3750.0,618212
2,3975,3739.0,618866
2,3980,3735.0,619457
2,3985,3717.0,620070
2,3990,3746.0,620743
2,3995,3760.0,621401
2,4000,3794.0,622069
2,4005,3793.0,622767
2,4010,3795.0,623413
2,4015,3765.0,623927
2,4020,3715.0,624501
2,4025,3736.0,625128
2,4030,3756.0,625866
2,4035,3793.0,626457
2,4040,3793.0,627214
2,4045,3805.0,627822
2,4050,3845.0,628538
2,4055,3879.0,629245
2,4060,3864.0,630063
2,4065,3831.0,630553
2,4070,3830.0,631334
2,4075,3840.0,632088
2,4080,3851.0,632669
2,4085,3811.0,633166
2,4090,3775.0,633764
2,4095,3734.0,634364
2,4100,3699.0,635119
2,4105,3690.0,635789
2,4110,3685.0,636424
2,4115,3720.0,637106
2,4120,3740.0,637669
2,4125,3745.0,638333
2,4130,3752.0,638966
2,4135,3750.0,639624
2,4140,3743.0,640211
2,4145,3742.0,640890
2,4150,3745.0,641513
2,4155,3684.0,641924
2,4160,3679.0,642476
2,4165,3723.0,643095
2,4170,3705.0,643615
2,4175,3690.0,644170
2,4180,3686.0,644829
2,4185,3756.0,645499
2,4190,3753.0,646129
2,4195,3765.0,646653
2,4200,3799.0,647498
2,4205,3807.0,648259
2,4210,3812.0,648980
2,4215,3815.0,649633
2,4220,3814.0,650144
2,4225,3804.0,650733
2,4230,3806.0,651348
2,4235,3807.0,652102
2,4240,3807.0,652829
2,4245,3787.0,653386
2,4250,3780.0,654116
2,4255,3844.0,654747
2,4260,3859.0,655413
2,4265,3859.0,656047
2,4270,3887.0,656732
2,4275,3893.0,657342
2,4280,3896.0,658027
2,4285,3894.0,658737
2,4290,3933.0,659351
2,4295,3959.0,660110
2,4300,3970.0,660724
2,4305,3963.0,661308
2,4310,3963.0,661997
2,4315,3940.0,662794
2,4320,3955.0,663484
2,4325,3969.0,664073
2,4330,3961.0,664760
2,4335,3957.0,665508
2,4340,3961.0,666199
2,4345,3981.0,666800
2,4350,3971.0,667511
2,4355,3970.0,668184
2,4360,3975.0,668916
2,4365,3976.0,669523
2,4370,3967.0,670209
2,4375,3978.0,670823
2,4380,3971.0,671513
2,4385,3972.0,672169
2,4390,3974.0,672773
2,4395,3968.0,673459
2,4400,3966.0,674152
2,4405,3968.0,674728
2,4410,3886.0,675111
2,4415,3873.0,675709
2,4420,3889.0,676385
2,4425,3890.0,677012
2,4430,3896.0,677754
2,4435,3892.0,678357
2,4440,3894.0,679048
2,4445,3891.0,679773
2,4450,3882.0,680506
2,4455,3883.0,681108
2,4460,3889.0,681786
2,4465,3879.0,682472
2,4470,3889.0,683074
2,4475,3888.0,683679
2,4480,3896.0,684272
2,4485,3863.0,684776
2,4490,3832.0,685281
2,4495,3841.0,685877
2,4500,3843.0,686522
2,4505,3843.0,687106
2,4510,3925.0,687710
2,4515,3961.0,688315
2,4520,3960.0,689000
2,4525,3960.0,689604
2,4530,3960.0,690285
2,4535,3967.0,690889
2,4540,3969.0,691501
2,4545,3973.0,692104
2,4550,3996.0,692779
2,4555,3996.0,693465
2,4560,3962.0,693991
2,4565,3971.0,694615
2,4570,3972.0,695218
2,4575,3973.0,695802
2,4580,3965.0,696490
2,4585,3982.0,697188
2,4590,4008.0,698001
2,4595,4006.0,698683
2,4600,3993.0,699447
2,4605,4001.0,700117
2,4610,3974.0,700653
2,4615,3959.0,701252
2,4620,3960.0,701871
2,4625,3958.0,702478
2,4630,3959.0,703087
2,4635,3962.0,703684
2,4640,3933.0,704200
2,4645,3934.0,704790
2,4650,3937.0,705376
2,4655,3935.0,706053
2,4660,3972.0,706680
2,4665,3973.0,707271
2,4670,3949.0,707808
2,4675,3948.0,708409
2,4680,3952.0,709091
2,4685,3968.0,709777
2,4690,3969.0,710517
2,4695,3969.0,711117
2,4700,3979.0,711787
2,4705,3979.0,712404
2,4710,4007.0,713017
2,4715,4022.0,713608
2,4720,4020.0,714256
2,4725,4020.0,714936
2,4730,3986.0,715478
2,4735,3985.0,716071
2,4740,4008.0,716693
2,4745,4005.0,717324
2,4750,3974.0,717916
2,4755,3976.0,718592
2,4760,3974.0,719200
2,4765,3972.0,719920
2,4770,3965.0,720426
2,4775,3931.0,720930
2,4780,3933.0,721554
2,4785,3934.0,722155
2,4790,3937.0,722766
2,4795,3932.0,723522
2,4800,3919.0,724078
2,4805,3919.0,724676
2,4810,3902.0,725213
2,4815,3902.0,725825
2,4820,3905.0,726418
2,4825,3871.0,727006
2,4830,3903.0,727607
2,4835,3904.0,728203
2,4840,3911.0,728787
2,4845,3907.0,729469
2,4850,3938.0,730058
2,4855,3923.0,730728
2,4860,3925.0,731325
2,4865,3915.0,731955
2,4870,3946.0,732566
2,4875,3961.0,733100
2,4880,3963.0,733698
2,4885,3963.0,734298
2,4890,3956.0,734891
2,4895,3961.0,735581
2,4900,3966.0,736254
2,4905,3958.0,736929
2,4910,3975.0,737530
2,4915,3975.0,738122
2,4920,3974.0,738729
2,4925,4010.0,739327
2,4930,4013.0,739926
2,4935,4010.0,740564
2,4940,4007.0,741234
2,4945,4013.0,741860
2,4950,4012.0,742452
2,4955,4025.0,743064
2,4960,4024.0,743675
2,4965,3999.0,744206
2,4970,3997.0,744895
2,4975,4012.0,745576
2,4980,4004.0,746170
2,4985,4005.0,746766
2,4990,4011.0,747375
2,4995,3991.0,747917
2,5000,4000.0,748595
2,5005,3975.0,749191
2,5010,3974.0,749869
2,5015,3957.0,750416
2,5020,3958.0,751005
2,5025,3958.0,751586
2,5030,3958.0,752173
2,5035,3958.0,752812
2,5040,3960.0,753400
2,5045,3900.0,753912
2,5050,3895.0,754598
2,5055,3894.0,755337
2,5060,3837.0,755772
2,5065,3871.0,756419
2,5070,3848.0,756936
2,5075,3819.0,757531
2,5080,3826.0,758128
2,5085,3826.0,758721
2,5090,3828.0,759307
2,5095,3820.0,759820
2,5100,3822.0,760412
2,5105,3851.0,761081
2,5110,3852.0,761678
2,5115,3868.0,762295
2,5120,3867.0,762889
2,5125,3865.0,763489
2,5130,3858.0,764165
2,5135,3860.0,764764
2,5140,3861.0,765353
2,5145,3920.0,766027
2,5150,3925.0,766624
2,5155,3929.0,767212
2,5160,3987.0,767807
2,5165,3988.0,768425
2,5170,3984.0,768936
2,5175,4017.0,769531
2,5180,4018.0,770119
2,5185,4018.0,770704
2,5190,4018.0,771293
2,5195,4028.0,772048
2,5200,4020.0,772723
2,5205,4025.0,773314
2,5210,4025.0,773901
2,5215,4015.0,774562
2,5220,4014.0,775159
2,5225,4015.0,775822
2,5230,4022.0,776413
2,5235,4020.0,777029
2,5240,4017.0,777689
2,5245,4012.0,778401
2,5250,3968.0,778867
2,5255,3965.0,779480
2,5260,3960.0,780162
2,5265,3961.0,780760
2,5270,3990.0,781359
2,5275,3990.0,781956
2,5280,3989.0,782558
2,5285,3987.0,783203
2,5290,3984.0,783795
2,5295,4002.0,784476
2,5300,4010.0,785075
2,5305,4009.0,785662
2,5310,3990.0,786209
2,5315,3992.0,786846
2,5320,3992.0,787444
2,5325,3993.0,788034
2,5330,3993.0,788635
2,5335,3991.0,789326
2,5340,3993.0,789944
2,5345,4000.0,790536
2,5350,4000.0,791210
2,5355,4002.0,791831
2,5360,3998.0,792404
2,5365,3998.0,793077
2,5370,3998.0,793668
2,5375,3999.0,794261
2,5380,3997.0,794912
2,5385,3999.0,795511
2,5390,3995.0,796151
2,5395,3997.0,796749
2,5400,3995.0,797340
2,5405,3994.0,797927
2,5410,4011.0,798544
2,5415,3987.0,799045
2,5420,3983.0,799772
2,5425,3983.0,800363
2,5430,3978.0,801114
2,5435,3980.0,801788
2,5440,3981.0,802386
2,5445,3980.0,802982
2,5450,4023.0,803568
2,5455,4024.0,804171
2,5460,4031.0,804834
2,5465,4031.0,805441
2,5470,4031.0,806039
2,5475,4031.0,806622
2,5480,4033.0,807209
2,5485,4031.0,807880
2,5490,4037.0,808469
2,5495,4033.0,809146
2,5500,4030.0,809816
2,5505,4029.0,810572
2,5510,4025.0,811250
2,5515,4045.0,811970
2,5520,4051.0,812565
2,5525,4026.0,813234
2,5530,4031.0,813834
2,5535,4034.0,814417
2,5540,4028.0,815101
2,5545,4029.0,815700
2,5550,4030.0,816343
2,5555,4004.0,816887
2,5560,4004.0,817481
2,5565,4001.0,818173
2,5570,4001.0,818766
2,5575,4000.0,819433
2,5580,3998.0,820091
2,5585,3999.0,820688
2,5590,3998.0,821286
2,5595,3977.0,821810
2,5600,3982.0,822397
2,5605,3985.0,822997
2,5610,3989.0,823600
2,5615,4000.0,824263
2,5620,3971.0,824782
2,5625,3994.0,825393
2,5630,3994.0,825984
2,5635,3994.0,826572
2,5640,3969.0,827210
2,5645,3966.0,827821
2,5650,3966.0,828442
2,5655,3982.0,829110
2,5660,3973.0,829862
2,5665,3976.0,830458
2,5670,3973.0,831127
2,5675,3954.0,831765
2,5680,3955.0,832357
2,5685,3952.0,832966
2,5690,3954.0,833556
2,5695,3972.0,834387
2,5700,3971.0,834980
2,5705,3967.0,835729
2,5710,3956.0,836402
2,5715,3958.0,836987
2,5720,3982.0,837656
2,5725,3956.0,838197
2,5730,3956.0,838785
2,5735,3954.0,839371
2,5740,3985.0,839951
2,5745,3983.0,840614
2,5750,3982.0,841247
2,5755,3991.0,841918
2,5760,4001.0,842523
2,5765,3999.0,843198
2,5770,4002.0,843786
2,5775,4021.0,844384
2,5780,3985.0,845127
2,5785,3980.0,845704
2,5790,3980.0,846298
2,5795,3986.0,846887
2,5800,3985.0,847543
2,5805,3976.0,848210
2,5810,3969.0,848752
2,5815,3940.0,849344
2,5820,3924.0,849963
2,5825,3944.0,850733
2,5830,3942.0,851400
2,5835,3943.0,852015
2,5840,3941.0,852684
2,5845,3930.0,853324
2,5850,3924.0,854129
2,5855,3921.0,854885
2,5860,3911.0,855556
2,5865,3912.0,856198
2,5870,3911.0,856797
2,5875,3910.0,857385
2,5880,3943.0,858005
2,5885,3952.0,858610
2,5890,3951.0,859205
2,5895,3952.0,859798
2,5900,3953.0,860415
2,5905,3966.0,861008
2,5910,3985.0,861613
2,5915,4014.0,862209
2,5920,4020.0,862933
2,5925,4027.0,863535
2,5930,4028.0,864125
2,5935,4028.0,864708
2,5940,4028.0,865312
2,5945,4044.0,865912
2,5950,4052.0,866508
2,5955,4056.0,867095
2,5960,4065.0,867689
2,5965,4067.0,868286
2,5970,4065.0,868965
2,5975,4067.0,869568
2,5980,4072.0,870160
2,5985,4071.0,870830
2,5990,4069.0,871505
2,5995,4067.0,872181
2,6000,4066.0,872852
2,6005,4065.0,873457
2,6010,4061.0,874206
2,6015,4059.0,874844
2,6020,4073.0,875515
2,6025,4074.0,876105
2,6030,4071.0,876787
2,6035,4071.0,877477
2,6040,4070.0,878153
2,6045,4069.0,878745
2,6050,4068.0,879416
2,6055,4068.0,880006
2,6060,4067.0,880735
2,6065,4065.0,881338
2,6070,4068.0,881931
2,6075,4067.0,882607
2,6080,4057.0,883275
2,6085,4050.0,883939
2,6090,4052.0,884613
2,6095,4054.0,885230
2,6100,4024.0,885766
2,6105,4024.0,886369
2,6110,4028.0,886964
2,6115,4029.0,887562
2,6120,4027.0,888230
2,6125,4026.0,888898
2,6130,4022.0,889475
2,6135,4021.0,890148
2,6140,4020.0,890835
2,6145,4019.0,891422
2,6150,4018.0,892016
2,6155,4004.0,892727
2,6160,4004.0,893402
2,6165,4003.0,894074
2,6170,4003.0,894666
2,6175,4004.0,895258
2,6180,4014.0,895843
2,6185,4020.0,896529
2,6190,4018.0,897156
2,6195,4016.0,897754
2,6200,4043.0,898444
2,6205,4042.0,899048
2,6210,4041.0,899721
2,6215,4042.0,900316
2,6220,4043.0,900930
2,6225,4031.0,901485
2,6230,4039.0,902076
2,6235,4041.0,902667
2,6240,4045.0,903261
2,6245,4043.0,904007
2,6250,4043.0,904682
2,6255,4056.0,905353
2,6260,4049.0,905940
2,6265,4048.0,906698
2,6270,4047.0,907374
2,6275,4046.0,907965
2,6280,4044.0,908638
2,6285,4028.0,909193
2,6290,4030.0,909860
2,6295,4029.0,910473
2,6300,4009.0,910986
2,6305,4008.0,911676
2,6310,3996.0,912262
2,6315,3988.0,912947
2,6320,3990.0,913535
2,6325,4001.0,914238
2,6330,4000.0,914911
2,6335,3998.0,915511
2,6340,3993.0,916222
2,6345,3994.0,916894
2,6350,3996.0,917490
2,6355,3996.0,918189
2,6360,4000.0,918961
2,6365,4001.0,919642
2,6370,4002.0,920240
2,6375,3985.0,920813
2,6380,3986.0,921410
2,6385,3997.0,921989
2,6390,3997.0,922578
2,6395,3999.0,923166
2,6400,4024.0,923774
2,6405,4025.0,924379
2,6410,4039.0,924987
2,6415,4047.0,925580
2,6420,4037.0,926253
2,6425,4038.0,926855
2,6430,4037.0,927531
2,6435,4039.0,928122
2,6440,4043.0,928722
2,6445,4046.0,929320
2,6450,4044.0,929998
2,6455,4043.0,930699
2,6460,4048.0,931318
2,6465,4051.0,931930
2,6470,4041.0,932635
2,6475,4053.0,933306
2,6480,4053.0,933891
2,6485,4056.0,934567
2,6490,4057.0,935159
2,6495,4058.0,935773
2,6500,4040.0,936320
2,6505,4042.0,936917
2,6510,4041.0,937591
2,6515,4041.0,938184
2,6520,4049.0,938789
2,6525,4050.0,939379
2,6530,4052.0,939970
2,6535,4050.0,940643
2,6540,4042.0,941301
2,6545,4042.0,941896
2,6550,4044.0,942543
2,6555,4030.0,943075
2,6560,4029.0,943681
2,6565,4028.0,944280
2,6570,4036.0,944866
2,6575,4041.0,945531
2,6580,4039.0,946206
2,6585,4042.0,946799
2,6590,3992.0,947261
2,6595,3991.0,947978
2,6600,4009.0,948576
2,6605,4005.0,949319
2,6610,3966.0,949906
2,6615,3966.0,950523
2,6620,3965.0,951195
2,6625,3965.0,951801
2,6630,3964.0,952473
2,6635,3965.0,953065
2,6640,3973.0,953655
2,6645,3972.0,954273
2,6650,3972.0,954893
2,6655,3987.0,955526
2,6660,3989.0,956117
2,6665,3980.0,956809
2,6670,3980.0,957416
2,6675,3981.0,958009
2,6680,3984.0,958614
2,6685,3984.0,959208
2,6690,4033.0,959799
2,6695,4024.0,960499
2,6700,4006.0,961085
2,6705,4008.0,961681
2,6710,4045.0,962348
2,6715,4034.0,963104
2,6720,4007.0,963624
2,6725,3990.0,964158
2,6730,3983.0,964908
2,6735,3974.0,965580
2,6740,3974.0,966171
2,6745,3974.0,966770
2,6750,3970.0,967454
2,6755,3963.0,968176
2,6760,3963.0,968770
2,6765,3969.0,969447
2,6770,3970.0,970048
2,6775,3910.0,970472
2,6780,3907.0,971072
2,6785,3904.0,971766
2,6790,3905.0,972366
2,6795,3915.0,972954
2,6800,3932.0,973557
2,6805,3927.0,974252
2,6810,3899.0,974763
2,6815,3907.0,975434
2,6820,3907.0,975948
2,6825,3908.0,976550
2,6830,3914.0,977142
2,6835,3923.0,977816
2,6840,3921.0,978574
2,6845,3922.0,979176
2,6850,3924.0,979822
2,6855,3932.0,980416
2,6860,3932.0,981012
2,6865,3936.0,981609
2,6870,3936.0,982287
2,6875,3996.0,982879
2,6880,3998.0,983473
2,6885,3984.0,984145
2,6890,3984.0,984743
2,6895,3984.0,985419
2,6900,3985.0,986023
2,6905,3990.0,986693
2,6910,4019.0,987284
2,6915,4021.0,987872
2,6920,4049.0,988475
2,6925,4064.0,989069
2,6930,4061.0,989826
2,6935,4062.0,990431
2,6940,4065.0,991029
2,6945,4063.0,991700
2,6950,4065.0,992294
2,6955,4060.0,992890
2,6960,4059.0,993484
2,6965,4059.0,994091
2,6970,4059.0,994684
2,6975,4059.0,995278
2,6980,4058.0,995953
2,6985,4075.0,996554
2,6990,4060.0,997125
2,6995,4056.0,997767
2,7000,4056.0,998354
2,7005,4057.0,998962
2,7010,4056.0,999641
2,7015,4057.0,1000228
2,7020,4056.0,1000915
2,7025,4057.0,1001512
2,7030,4061.0,1002168
2,7035,4030.0,1002764
2,7040,4025.0,1003445
2,7045,4010.0,1004140
2,7050,4009.0,1004748
2,7055,4012.0,1005432
2,7060,4011.0,1006030
2,7065,3996.0,1006633
2,7070,3991.0,1007404
2,7075,3989.0,1008004
2,7080,3989.0,1008599
2,7085,3973.0,1009367
2,7090,3985.0,1010042
2,7095,3988.0,1010631
2,7100,3987.0,1011319
2,7105,3988.0,1011914
2,7110,3987.0,1012591
2,7115,3986.0,1013186
2,7120,3989.0,1013793
2,7125,3989.0,1014394
2,7130,3986.0,1015027
2,7135,4015.0,1015731
2,7140,4019.0,1016341
2,7145,4036.0,1016943
2,7150,4036.0,1017540
2,7155,4037.0,1018214
2,7160,4039.0,1018809
2,7165,4053.0,1019417
2,7170,4056.0,1020011
2,7175,4018.0,1020579
2,7180,4007.0,1021143
2,7185,3994.0,1021644
2,7190,3996.0,1022236
2,7195,3996.0,1022830
2,7200,3990.0,1023578
2,7205,3984.0,1024253
2,7210,3986.0,1024856
2,7215,3985.0,1025531
2,7220,3984.0,1026135
2,7225,3954.0,1026645
2,7230,3956.0,1027288
2,7235,3955.0,1028050
2,7240,3955.0,1028644
2,7245,3954.0,1029266
2,7250,3953.0,1029874
2,7255,3953.0,1030480
2,7260,3953.0,1031077
2,7265,3951.0,1031663
2,7270,3953.0,1032260
2,7275,3991.0,1033017
2,7280,4003.0,1033694
2,7285,4032.0,1034364
2,7290,4032.0,1034955
2,7295,4031.0,1035560
2,7300,4037.0,1036165
2,7305,4042.0,1036758
2,7310,4044.0,1037346
2,7315,4046.0,1037934
2,7320,4046.0,1038536
2,7325,4075.0,1039136
2,7330,4066.0,1039814
2,7335,4068.0,1040412
2,7340,4069.0,1041002
2,7345,4070.0,1041612
2,7350,4056.0,1042284
2,7355,4056.0,1042881
2,7360,4054.0,1043574
2,7365,4057.0,1044164
2,7370,4040.0,1044914
2,7375,4042.0,1045506
2,7380,4029.0,1046171
2,7385,4021.0,1046931
2,7390,4022.0,1047531
2,7395,4019.0,1048199
2,7400,4020.0,1048792
2,7405,4017.0,1049470
2,7410,4017.0,1050061
2,7415,4012.0,1050739
2,7420,4012.0,1051333
2,7425,4010.0,1052000
2,7430,4007.0,1052654
2,7435,4008.0,1053250
2,7440,4006.0,1053875
2,7445,3992.0,1054451
2,7450,4007.0,1055131
2,7455,4004.0,1055887
2,7460,4004.0,1056483
2,7465,4002.0,1057107
2,7470,4018.0,1057713
2,7475,4018.0,1058312
2,7480,4032.0,1058906
2,7485,4041.0,1059499
2,7490,4039.0,1060089
2,7495,4044.0,1060689
2,7500,4041.0,1061368
2,7505,4043.0,1062048
2,7510,4042.0,1062637
2,7515,4043.0,1063313
2,7520,4043.0,1063899
2,7525,4043.0,1064511
2,7530,4055.0,1065183
2,7535,4051.0,1065856
2,7540,4051.0,1066534
2,7545,4059.0,1067308
2,7550,4060.0,1067902
2,7555,4046.0,1068450
2,7560,4046.0,1069119
2,7565,4045.0,1069719
2,7570,4039.0,1070395
2,7575,4038.0,1071064
2,7580,4037.0,1071652
2,7585,4037.0,1072241
2,7590,4034.0,1072922
2,7595,4031.0,1073682
2,7600,4032.0,1074359
2,7605,4034.0,1074957
2,7610,4035.0,1075553
2,7615,4037.0,1076237
2,7620,4035.0,1076835
2,7625,4038.0,1077432
2,7630,4040.0,1078033
2,7635,4042.0,1078741
2,7640,4041.0,1079419
2,7645,4047.0,1080034
2,7650,4046.0,1080640
2,7655,4064.0,1081229
2,7660,4066.0,1081818
2,7665,4069.0,1082419
2,7670,4077.0,1083023
2,7675,4077.0,1083623
2,7680,4078.0,1084220
2,7685,4078.0,1084825
2,7690,4081.0,1085421
2,7695,4084.0,1086021
2,7700,4066.0,1086715
2,7705,4065.0,1087319
2,7710,4063.0,1087991
2,7715,4035.0,1088521
2,7720,4038.0,1089114
2,7725,4036.0,1089726
2,7730,4034.0,1090318
2,7735,4033.0,1091056
2,7740,4012.0,1091582
2,7745,4010.0,1092280
2,7750,4011.0,1092880
2,7755,4010.0,1093481
2,7760,4007.0,1094074
2,7765,3973.0,1094586
2,7770,3957.0,1095154
2,7775,3935.0,1095676
2,7780,3935.0,1096279
2,7785,3935.0,1096869
2,7790,3930.0,1097463
2,7795,3930.0,1098076
2,7800,3950.0,1098693
2,7805,3951.0,1099342
2,7810,3953.0,1099954
2,7815,3983.0,1100558
2,7820,3983.0,1101152
2,7825,3956.0,1101668
2,7830,3955.0,1102416
2,7835,3957.0,1103095
2,7840,3980.0,1103775
2,7845,3974.0,1104406
2,7850,3973.0,1105077
2,7855,3974.0,1105702
2,7860,3977.0,1106354
2,7865,4011.0,1106949
2,7870,4025.0,1107588
2,7875,4044.0,1108265
2,7880,4043.0,1108863
2,7885,4040.0,1109579
2,7890,4046.0,1110255
2,7895,4046.0,1110858
2,7900,4044.0,1111470
2,7905,4032.0,1112166
2,7910,4032.0,1112837
2,7915,4031.0,1113513
2,7920,4025.0,1114192
2,7925,4053.0,1114937
2,7930,4053.0,1115609
2,7935,4054.0,1116213
2,7940,4049.0,1116913
2,7945,4057.0,1117533
2,7950,4056.0,1118144
2,7955,4055.0,1118783
2,7960,4035.0,1119336
2,7965,4033.0,1119943
2,7970,4019.0,1120636
2,7975,4023.0,1121234
2,7980,4024.0,1121839
2,7985,4020.0,1122431
2,7990,4011.0,1123104
2,7995,4010.0,1123696
2,8000,4005.0,1124329
2,8005,4000.0,1124886
2,8010,3936.0,1125500
2,8015,3935.0,1126110
2,8020,3941.0,1126719
2,8025,3942.0,1127318
2,8030,3945.0,1127979
2,8035,3942.0,1128586
2,8040,3948.0,1129177
2,8045,3947.0,1129788
2,8050,3948.0,1130388
2,8055,3949.0,1130988
2,8060,3969.0,1131593
2,8065,3971.0,1132204
2,8070,3984.0,1132878
2,8075,3983.0,1133480
2,8080,3983.0,1134066
2,8085,3990.0,1134668
2,8090,3997.0,1135267
2,8095,3997.0,1135886
2,8100,4000.0,1136558
2,8105,4013.0,1137230
2,8110,4077.0,1137836
2,8115,4063.0,1138383
2,8120,4062.0,1138999
2,8125,4061.0,1139594
2,8130,4060.0,1140221
2,8135,4062.0,1140850
2,8140,4059.0,1141501
2,8145,4057.0,1142178
2,8150,4058.0,1142781
2,8155,4058.0,1143384
2,8160,4057.0,1144056
2,8165,4054.0,1144751
2,8170,4056.0,1145430
2,8175,4054.0,1146195
2,8180,4051.0,1146816
2,8185,4050.0,1147429
2,8190,4052.0,1148052
2,8195,4053.0,1148652
2,8200,4057.0,1149282
2,8205,4057.0,1149960
2,8210,4057.0,1150549
2,8215,4072.0,1151151
2,8220,4070.0,1151755
2,8225,4069.0,1152440
2,8230,4066.0,1153034
2,8235,4066.0,1153635
2,8240,4039.0,1154154
2,8245,4038.0,1154845
2,8250,4038.0,1155524
2,8255,4025.0,1156126
2,8260,4025.0,1156809
2,8265,4025.0,1157483
2,8270,4026.0,1158073
2,8275,4028.0,1158671
2,8280,4031.0,1159289
2,8285,4031.0,1159900
2,8290,4000.0,1160399
2,8295,3997.0,1161083
2,8300,3996.0,1161757
2,8305,4000.0,1162368
2,8310,3988.0,1163035
2,8315,3986.0,1163705
2,8320,3961.0,1164319
2,8325,3963.0,1164917
2,8330,3965.0,1165519
2,8335,3965.0,1166117
2,8340,3993.0,1166887
2,8345,3997.0,1167489
2,8350,3995.0,1168096
2,8355,4006.0,1168766
2,8360,4006.0,1169449
2,8365,4009.0,1170046
2,8370,4008.0,1170641
2,8375,4009.0,1171231
2,8380,3990.0,1171914
2,8385,3989.0,1172519
2,8390,4019.0,1173202
2,8395,4021.0,1173882
2,8400,4021.0,1174556
2,8405,3992.0,1175065
2,8410,4004.0,1175667
2,8415,4006.0,1176356
2,8420,4030.0,1177028
2,8425,4027.0,1177777
2,8430,4029.0,1178372
2,8435,4028.0,1178991
2,8440,4024.0,1179672
2,8445,4022.0,1180400
2,8450,4022.0,1181073
2,8455,4024.0,1181676
2,8460,4023.0,1182352
2,8465,4021.0,1183036
2,8470,4021.0,1183648
2,8475,4019.0,1184261
2,8480,4034.0,1184944
2,8485,4035.0,1185569
2,8490,3985.0,1186236
2,8495,3985.0,1186829
2,8500,3966.0,1187365
2,8505,3995.0,1187959
2,8510,3994.0,1188557
2,8515,3995.0,1189154
2,8520,3999.0,1189755
2,8525,4000.0,1190364
2,8530,3966.0,1190955
2,8535,3968.0,1191545
2,8540,3974.0,1192140
2,8545,3974.0,1192748
2,8550,3975.0,1193345
2,8555,3975.0,1193940
2,8560,3976.0,1194541
2,8565,3977.0,1195150
2,8570,3978.0,1195751
2,8575,3979.0,1196377
2,8580,3973.0,1196957
2,8585,3970.0,1197564
2,8590,3991.0,1198161
2,8595,3985.0,1198924
2,8600,4003.0,1199623
2,8605,4001.0,1200241
2,8610,4001.0,1200842
2,8615,4001.0,1201479
2,8620,4001.0,1202090
2,8625,4001.0,1202727
2,8630,4034.0,1203335
2,8635,4029.0,1204002
2,8640,4027.0,1204613
2,8645,4026.0,1205297
2,8650,4021.0,1205990
2,8655,4021.0,1206604
2,8660,4021.0,1207205
2,8665,4020.0,1207896
2,8670,4016.0,1208586
2,8675,4016.0,1209276
2,8680,4018.0,1209879
2,8685,4020.0,1210568
2,8690,4046.0,1211411
2,8695,4045.0,1212008
2,8700,4047.0,1212611
2,8705,4049.0,1213216
2,8710,4050.0,1213812
2,8715,4048.0,1214418
2,8720,4048.0,1215040
2,8725,4049.0,1215659
2,8730,4050.0,1216277
2,8735,4055.0,1216873
2,8740,4056.0,1217469
2,8745,4059.0,1218110
2,8750,4064.0,1218743
2,8755,4064.0,1219380
2,8760,4064.0,1219990
2,8765,4063.0,1220588
2,8770,4038.0,1221123
2,8775,4038.0,1221721
2,8780,4045.0,1222313
2,8785,4047.0,1222939
2,8790,4047.0,1223614
2,8795,4053.0,1224304
2,8800,4051.0,1224914
2,8805,4051.0,1225509
2,8810,4051.0,1226120
2,8815,4051.0,1226736
2,8820,4032.0,1227397
2,8825,4026.0,1228083
2,8830,4023.0,1228767
2,8835,4021.0,1229374
2,8840,4006.0,1230017
2,8845,4004.0,1230608
2,8850,4004.0,1231198
2,8855,4004.0,1231806
2,8860,4004.0,1232407
2,8865,4003.0,1232989
2,8870,4029.0,1233612
2,8875,3982.0,1234203
2,8880,3966.0,1234774
2,8885,3964.0,1235386
2,8890,3965.0,1236150
2,8895,3964.0,1236775
2,8900,3966.0,1237385
2,8905,3966.0,1237998
2,8910,3963.0,1238596
2,8915,3964.0,1239273
2,8920,3982.0,1239872
2,8925,3989.0,1240465
2,8930,3990.0,1241151
2,8935,3961.0,1241668
2,8940,3975.0,1242324
2,8945,3973.0,1243001
2,8950,3972.0,1243606
2,8955,3972.0,1244221
2,8960,3972.0,1244825
2,8965,3955.0,1245454
2,8970,3953.0,1246156
2,8975,4001.0,1246757
2,8980,4017.0,1247350
2,8985,4018.0,1247994
2,8990,4021.0,1248606
2,8995,4020.0,1249222
2,9000,4017.0,1249828
2,9005,4015.0,1250448
2,9010,4017.0,1251132
2,9015,4017.0,1251720
2,9020,4016.0,1252443
2,9025,4013.0,1253035
2,9030,4013.0,1253671
2,9035,4043.0,1254325
2,9040,4044.0,1254916
2,9045,4042.0,1255583
2,9050,4044.0,1256242
2,9055,4012.0,1256855
2,9060,4012.0,1257548
2,9065,4033.0,1258151
2,9070,4036.0,1258766
2,9075,4035.0,1259360
2,9080,4033.0,1260041
2,9085,4028.0,1260722
2,9090,4029.0,1261322
2,9095,4033.0,1261919
2,9100,4035.0,1262535
2,9105,4023.0,1263234
2,9110,4024.0,1263825
2,9115,4025.0,1264427
2,9120,4023.0,1265144
2,9125,4020.0,1265831
2,9130,4021.0,1266446
2,9135,4005.0,1266993
2,9140,4005.0,1267626
2,9145,3991.0,1268169
2,9150,3991.0,1268795
2,9155,4023.0,1269456
2,9160,4020.0,1270069
2,9165,4018.0,1270672
2,9170,4015.0,1271364
2,9175,4000.0,1271927
2,9180,4002.0,1272607
2,9185,4004.0,1273285
2,9190,3983.0,1273904
2,9195,3979.0,1274549
2,9200,3980.0,1275151
2,9205,3994.0,1275751
2,9210,3993.0,1276361
2,9215,3990.0,1276963
2,9220,3993.0,1277575
2,9225,3999.0,1278185
2,9230,3998.0,1278792
2,9235,4014.0,1279402
2,9240,4014.0,1279991
2,9245,4032.0,1280600
2,9250,4029.0,1281286
2,9255,4027.0,1281876
2,9260,4016.0,1282530
2,9265,4018.0,1283129
2,9270,4021.0,1283739
2,9275,4022.0,1284496
2,9280,4021.0,1285161
2,9285,4023.0,1285776
2,9290,4043.0,1286407
2,9295,4044.0,1287070
2,9300,4044.0,1287662
2,9305,4041.0,1288252
2,9310,4039.0,1288846
2,9315,4039.0,1289525
2,9320,4037.0,1290204
2,9325,4032.0,1290809
2,9330,4027.0,1291391
2,9335,4026.0,1291996
2,9340,4025.0,1292696
2,9345,4026.0,1293371
2,9350,4020.0,1294204
2,9355,4002.0,1294744
2,9360,3997.0,1295299
2,9365,3991.0,1295982
2,9370,3993.0,1296583
2,9375,4007.0,1297265
2,9380,4009.0,1297859
2,9385,4008.0,1298500
2,9390,4006.0,1299252
2,9395,4007.0,1299841
2,9400,4005.0,1300437
2,9405,4007.0,1301026
2,9410,4008.0,1301673
2,9415,4010.0,1302349
2,9420,4011.0,1302944
2,9425,4011.0,1303666
2,9430,4016.0,1304349
2,9435,3986.0,1304841
2,9440,3966.0,1305471
2,9445,3965.0,1306065
2,9450,3971.0,1306754
2,9455,3991.0,1307396
2,9460,4008.0,1308017
2,9465,4011.0,1308861
2,9470,4010.0,1309505
2,9475,4010.0,1310126
2,9480,4008.0,1310811
2,9485,4007.0,1311403
2,9490,4007.0,1312086
2,9495,4008.0,1312700
2,9500,4009.0,1313303
2,9505,4008.0,1313908
2,9510,4007.0,1314566
2,9515,4007.0,1315164
2,9520,4008.0,1315754
2,9525,3975.0,1316241
2,9530,3973.0,1316857
2,9535,4001.0,1317592
2,9540,4011.0,1318158
2,9545,4012.0,1318751
2,9550,4007.0,1319512
2,9555,4005.0,1320131
2,9560,4007.0,1320744
2,9565,3997.0,1321430
2,9570,3996.0,1322112
2,9575,3995.0,1322730
2,9580,3994.0,1323406
2,9585,3993.0,1324133
2,9590,3995.0,1324736
2,9595,3996.0,1325343
2,9600,3991.0,1326013
2,9605,3992.0,1326607
2,9610,3993.0,1327206
2,9615,3992.0,1327882
2,9620,3992.0,1328571
2,9625,4030.0,1329164
2,9630,4033.0,1329762
2,9635,4037.0,1330357
2,9640,4048.0,1331002
2,9645,4034.0,1331575
2,9650,4037.0,1332285
2,9655,4017.0,1332830
2,9660,4012.0,1333495
2,9665,4018.0,1334175
2,9670,4018.0,1334776
2,9675,4018.0,1335381
2,9680,4017.0,1336003
2,9685,4022.0,1336595
2,9690,4021.0,1337190
2,9695,4017.0,1337932
2,9700,4022.0,1338548
2,9705,4021.0,1339226
2,9710,4022.0,1339827
2,9715,4024.0,1340424
2,9720,4022.0,1341043
2,9725,4021.0,1341637
2,9730,4021.0,1342234
2,9735,4019.0,1342915
2,9740,4019.0,1343511
2,9745,4032.0,1344104
2,9750,4035.0,1344711
2,9755,4037.0,1345462
2,9760,4042.0,1346056
2,9765,4035.0,1346701
2,9770,4036.0,1347308
2,9775,4037.0,1347938
2,9780,4039.0,1348525
2,9785,4032.0,1349126
2,9790,4031.0,1349815
2,9795,4031.0,1350404
2,9800,4030.0,1350998
2,9805,4030.0,1351613
2,9810,4031.0,1352212
2,9815,4031.0,1352815
2,9820,4031.0,1353419
2,9825,4000.0,1353915
2,9830,3999.0,1354530
2,9835,4001.0,1355138
2,9840,4001.0,1355749
2,9845,4003.0,1356349
2,9850,4001.0,1356959
2,9855,4020.0,1357576
2,9860,4019.0,1358171
2,9865,4019.0,1358768
2,9870,4019.0,1359403
2,9875,4009.0,1360098
2,9880,4011.0,1360716
2,9885,4017.0,1361310
2,9890,4019.0,1361918
2,9895,4010.0,1362574
2,9900,3965.0,1363034
2,9905,3966.0,1363648
2,9910,3947.0,1364229
2,9915,3944.0,1364901
2,9920,3926.0,1365438
2,9925,3946.0,1366087
2,9930,3948.0,1366692
2,9935,3946.0,1367292
2,9940,3945.0,1367982
2,9945,3945.0,1368584
2,9950,3940.0,1369179
2,9955,3914.0,1369715
2,9960,3914.0,1370384
2,9965,3924.0,1371065
2,9970,3914.0,1371821
2,9975,3924.0,1372440
2,9980,3923.0,1373046
2,9985,3924.0,1373641
2,9990,3922.0,1374230
2,9995,3931.0,1374813
2,10000,3978.0,1375441
2,10005,3958.0,1375979
2,10010,3952.0,1376641
2,10015,3955.0,1377261
2,10020,3975.0,1377885
2,10025,3967.0,1378649
2,10030,3966.0,1379251
2,10035,3966.0,1379850
2,10040,3951.0,1380393
2,10045,3918.0,1380985
2,10050,3917.0,1381580
2,10055,3941.0,1382185
2,10060,3939.0,1382864
2,10065,3942.0,1383458
2,10070,3953.0,1384054
2,10075,3951.0,1384673
2,10080,3950.0,1385263
2,10085,3950.0,1385862
2,10090,3952.0,1386471
2,10095,3955.0,1387127
2,10100,3938.0,1387767
2,10105,3957.0,1388383
2,10110,3981.0,1389115
2,10115,3980.0,1389723
2,10120,3980.0,1390353
2,10125,3998.0,1390948
2,10130,3997.0,1391609
2,10135,3998.0,1392201
2,10140,4015.0,1392862
2,10145,4048.0,1393461
2,10150,4056.0,1394134
2,10155,4059.0,1394738
2,10160,4060.0,1395326
2,10165,4060.0,1395955
2,10170,4059.0,1396594
2,10175,4061.0,1397258
2,10180,4058.0,1397953
2,10185,4058.0,1398558
2,10190,4057.0,1399165
2,10195,4054.0,1399762
2,10200,4069.0,1400437
2,10205,4071.0,1401050
2,10210,4068.0,1401740
2,10215,4067.0,1402343
2,10220,4068.0,1402942
2,10225,4070.0,1403544
2,10230,4070.0,1404148
2,10235,4024.0,1404603
2,10240,4021.0,1405379
2,10245,4015.0,1406153
2,10250,4017.0,1406744
2,10255,4012.0,1407416
2,10260,4014.0,1408099
2,10265,4015.0,1408707
2,10270,4014.0,1409298
2,10275,4009.0,1409899
2,10280,4012.0,1410529
2,10285,4012.0,1411136
2,10290,4012.0,1411737
2,10295,4013.0,1412416
2,10300,3996.0,1413096
2,10305,3965.0,1413608
2,10310,3956.0,1414284
2,10315,3955.0,1415048
2,10320,3951.0,1415745
2,10325,3918.0,1416356
2,10330,3920.0,1416967
2,10335,3964.0,1417675
2,10340,3966.0,1418283
2,10345,3969.0,1418895
2,10350,3968.0,1419550
2,10355,3969.0,1420306
2,10360,3961.0,1420977
2,10365,3960.0,1421595
2,10370,3933.0,1422106
2,10375,3936.0,1422792
2,10380,3938.0,1423401
2,10385,3936.0,1424102
2,10390,3936.0,1424777
2,10395,3936.0,1425466
2,10400,3954.0,1426072
2,10405,3984.0,1426673
2,10410,3997.0,1427274
2,10415,3999.0,1427879
2,10420,3993.0,1428570
2,10425,4026.0,1429176
2,10430,3995.0,1429893
2,10435,3993.0,1430647
2,10440,3994.0,1431265
2,10445,3995.0,1431894
2,10450,3995.0,1432576
2,10455,3938.0,1433081
2,10460,3943.0,1433837
2,10465,3943.0,1434441
2,10470,3971.0,1435036
2,10475,3974.0,1435657
2,10480,3973.0,1436285
2,10485,3973.0,1436884
2,10490,3975.0,1437525
2,10495,3977.0,1438146
2,10500,3974.0,1438734
2,10505,3974.0,1439352
2,10510,3958.0,1439922
2,10515,3957.0,1440544
2,10520,3967.0,1441145
2,10525,3965.0,1441823
2,10530,3964.0,1442341
2,10535,3967.0,1442943
2,10540,3935.0,1443547
2,10545,3935.0,1444205
2,10550,3936.0,1444801
2,10555,3995.0,1445485
2,10560,3999.0,1446101
2,10565,4000.0,1446725
2,10570,3999.0,1447324
2,10575,3990.0,1447927
2,10580,3990.0,1448520
2,10585,3992.0,1449120
2,10590,3991.0,1449720
2,10595,3991.0,1450325
2,10600,3962.0,1450958
2,10605,3963.0,1451570
2,10610,3979.0,1452166
2,10615,3974.0,1452842
2,10620,3970.0,1453583
2,10625,3968.0,1454213
2,10630,3999.0,1454868
2,10635,3999.0,1455545
2,10640,4028.0,1456240
2,10645,4029.0,1456856
2,10650,4023.0,1457533
2,10655,4019.0,1458234
2,10660,4019.0,1458847
2,10665,4018.0,1459554
2,10670,4018.0,1460240
2,10675,3997.0,1460797
2,10680,3997.0,1461413
2,10685,3994.0,1462096
2,10690,3994.0,1462780
2,10695,3985.0,1463484
2,10700,4017.0,1464097
2,10705,3969.0,1464554
2,10710,3969.0,1465157
2,10715,3976.0,1465756
2,10720,3968.0,1466532
2,10725,3968.0,1467304
2,10730,3969.0,1467897
2,10735,3970.0,1468519
2,10740,3969.0,1469129
2,10745,3953.0,1469672
2,10750,3929.0,1470186
2,10755,3934.0,1470795
2,10760,3931.0,1471484
2,10765,3931.0,1472116
2,10770,3932.0,1472713
2,10775,3959.0,1473312
2,10780,3959.0,1473968
2,10785,3962.0,1474571
2,10790,3960.0,1475273
2,10795,3969.0,1475880
2,10800,3970.0,1476484
2,10805,4016.0,1477098
2,10810,4016.0,1477705
2,10815,4014.0,1478315
2,10820,4012.0,1478999
2,10825,4014.0,1479607
2,10830,4013.0,1480219
2,10835,4009.0,1480897
2,10840,3974.0,1481608
2,10845,3988.0,1482293
2,10850,4009.0,1482884
2,10855,4009.0,1483485
2,10860,4009.0,1484142
2,10865,4009.0,1484742
2,10870,4006.0,1485415
2,10875,4009.0,1486030
2,10880,4007.0,1486651
2,10885,4006.0,1487261
2,10890,3968.0,1487746
2,10895,3969.0,1488386
2,10900,3966.0,1489015
2,10905,3967.0,1489623
2,10910,3963.0,1490309
2,10915,3962.0,1490994
2,10920,3971.0,1491633
2,10925,3971.0,1492330
2,10930,3969.0,1493023
2,10935,3972.0,1493645
2,10940,4011.0,1494294
2,10945,4012.0,1494977
2,10950,4021.0,1495602
2,10955,4020.0,1496219
2,10960,4021.0,1496930
2,10965,4022.0,1497534
2,10970,3995.0,1498050
2,10975,3993.0,1498736
2,10980,3953.0,1499206
2,10985,3950.0,1499833
